
Integration time [ms]: 200,000
Averaging Nr. [scans]: 300
Smoothing Nr. [pixels]: 0
Data measured with spectrometer [name]: 2112124U1
Wave   ;Sample   ;Dark     ;Reference;Absorbance
[nm]   ;[counts] ;[counts] ;[counts] ;[A.U]

 176,03;  368,909;  360,085;  361,766;-0,72003
 176,64;  386,135;  383,568;  380,058; 0,00000
 177,24;  364,074;  360,240;  358,030; 0,00000
 177,84;  381,952;  376,289;  375,041; 0,00000
 178,44;  390,102;  382,372;  384,307;-0,60153
 179,05;  400,338;  395,102;  393,245; 0,00000
 179,65;  367,534;  363,385;  360,949; 0,00000
 180,25;  366,247;  358,266;  363,503;-0,18303
 180,85;  378,259;  370,726;  368,972; 0,00000
 181,45;  375,159;  370,023;  370,344; 0,00000
 182,06;  361,352;  356,396;  354,159; 0,00000
 182,66;  420,098;  411,715;  411,613; 0,00000
 183,26;  370,605;  366,866;  366,806; 0,00000
 183,86;  402,926;  396,660;  394,765; 0,00000
 184,46;  349,583;  344,907;  345,601; 0,00000
 185,07;  373,841;  365,721;  369,104;-0,38027
 185,67;  432,204;  385,432;  484,410; 0,32555
 186,27;  435,666;  392,948;  491,702; 0,36394
 186,87;  416,944;  374,503;  470,507; 0,35451
 187,47;  437,686;  390,680;  490,031; 0,32502
 188,07;  430,356;  382,374;  482,569; 0,31977
 188,68;  415,263;  364,576;  475,468; 0,34001
 189,28;  402,619;  359,107;  458,738; 0,35979
 189,88;  406,194;  374,931;  462,542; 0,44753
 190,48;  401,041;  377,407;  457,720; 0,53125
 191,08;  440,394;  408,082;  501,853; 0,46271
 191,68;  412,211;  366,924;  470,092; 0,35758
 192,29;  477,461;  421,445;  535,607; 0,30920
 192,89;  438,251;  388,983;  500,960; 0,35656
 193,49;  456,442;  400,717;  518,844; 0,32630
 194,09;  434,917;  379,127;  498,981; 0,33210
 194,69;  473,732;  418,284;  540,034; 0,34158
 195,29;  402,458;  354,652;  472,590; 0,39217
 195,90;  427,341;  373,513;  499,556; 0,36951
 196,50;  442,396;  388,568;  516,374; 0,37555
 197,10;  459,459;  404,543;  533,403; 0,37042
 197,70;  427,076;  372,677;  503,428; 0,38086
 198,30;  428,029;  377,380;  509,028; 0,41484
 198,90;  447,875;  393,536;  531,489; 0,40462
 199,50;  436,538;  384,133;  531,112; 0,44788
 200,11;  449,961;  391,639;  552,233; 0,43990
 200,71;  469,621;  409,695;  591,699; 0,48247
 201,31;  472,772;  406,580;  620,877; 0,51022
 201,91;  454,691;  384,883;  644,043; 0,56966
 202,51;  459,977;  384,918;  699,059; 0,62173
 203,11;  490,377;  404,412;  782,940; 0,64377
 203,71;  457,190;  359,274;  812,596; 0,66556
 204,31;  469,819;  370,261;  896,564; 0,72316
 204,91;  503,947;  388,517;  994,399; 0,72007
 205,52;  477,102;  360,153; 1028,559; 0,75704
 206,12;  511,055;  380,197; 1120,244; 0,75246
 206,72;  515,282;  382,223; 1194,932; 0,78589
 207,32;  511,694;  367,923; 1244,209; 0,78497
 207,92;  545,301;  391,240; 1337,763; 0,78844
 208,52;  562,804;  397,423; 1429,559; 0,79525
 209,12;  549,294;  377,125; 1505,057; 0,81633
 209,72;  571,572;  387,141; 1638,489; 0,83154
 210,32;  570,024;  364,232; 1737,570; 0,82435
 210,92;  595,343;  375,875; 1893,642; 0,83983
 211,53;  606,917;  373,543; 2040,929; 0,85398
 212,13;  607,263;  356,459; 2185,346; 0,86285
 212,73;  660,148;  390,919; 2373,938; 0,86721
 213,33;  627,430;  340,581; 2452,200; 0,86696
 213,93;  659,768;  365,789; 2589,309; 0,87872
 214,53;  776,694;  463,088; 2774,877; 0,86756
 215,13;  684,107;  374,299; 2706,247; 0,87663
 215,73;  646,511;  352,064; 2586,147; 0,88009
 216,33;  595,082;  330,625; 2324,925; 0,87744
 216,93;  573,602;  353,156; 1976,703; 0,86716
 217,53;  567,174;  372,175; 1751,992; 0,84979
 218,13;  594,333;  378,767; 2006,463; 0,87799
 218,73;  660,540;  351,796; 2816,591; 0,90218
 219,33;  775,171;  351,077; 3875,882; 0,91967
 219,93;  909,525;  385,258; 4878,317; 0,93299
 220,53;  980,965;  372,999; 5634,988; 0,93727
 221,14; 1030,650;  364,044; 6196,632; 0,94199
 221,74; 1082,095;  361,626; 6684,458; 0,94330
 222,34; 1101,355;  343,687; 7080,172; 0,94895
 222,94; 1151,953;  349,855; 7501,498; 0,95018
 223,54; 1167,787;  328,743; 7905,167; 0,95568
 224,14; 1319,055;  431,994; 8480,714; 0,95777
 224,74; 1289,380;  360,118; 8926,688; 0,96467
 225,34; 1325,837;  357,229; 9339,535; 0,96724
 225,94; 1342,862;  338,030; 9767,511; 0,97239
 226,54; 1399,039;  350,738;10257,946; 0,97547
 227,14; 1461,819;  365,936;10757,968; 0,97694
 227,74; 1477,308;  350,104;11086,055; 0,97884
 228,34; 1514,922;  351,450;11592,785; 0,98506
 228,94; 1519,819;  325,353;11914,619; 0,98688
 229,54; 1596,661;  360,508;12403,170; 0,98865
 230,14; 1621,668;  346,823;12903,004; 0,99340
 230,74; 1666,278;  344,565;13441,471; 0,99603
 231,34; 1729,186;  356,340;14021,042; 0,99798
 231,94; 1778,013;  352,503;14666,870; 1,00180
 232,54; 1800,091;  334,666;15158,793; 1,00501
 233,14; 1878,259;  373,015;15710,777; 1,00816
 233,74; 1871,661;  332,580;16139,117; 1,01158
 234,34; 1897,357;  328,087;16457,922; 1,01193
 234,94; 1936,707;  350,162;16796,764; 1,01562
 235,54; 1902,752;  323,556;16830,246; 1,01922
 236,14; 1937,574;  360,183;16906,576; 1,02076
 236,74; 1907,337;  345,190;16768,246; 1,02173
 237,34; 1890,820;  356,368;16610,350; 1,02501
 237,94; 1825,763;  324,546;16318,009; 1,02750
 238,54; 1800,807;  321,561;16034,139; 1,02621
 239,14; 1773,935;  335,450;15675,290; 1,02792
 239,74; 1702,986;  303,739;15249,012; 1,02861
 240,34; 1674,013;  323,579;14915,701; 1,03364
 240,93; 1765,006;  436,979;14666,622; 1,02999
 241,53; 1645,758;  362,617;14235,317; 1,03389
 242,13; 1655,395;  406,027;13863,337; 1,03227
 242,73; 1532,296;  330,655;13429,511; 1,03746
 243,33; 1492,031;  332,617;13016,658; 1,03902
 243,93; 1510,102;  389,052;12693,787; 1,04045
 244,53; 1429,445;  338,653;12294,700; 1,03985
 245,13; 1418,523;  365,120;11965,734; 1,04189
 245,73; 1396,691;  369,150;11664,556; 1,04110
 246,33; 1349,820;  352,846;11441,659; 1,04620
 246,93; 1319,219;  336,518;11258,408; 1,04588
 247,53; 1315,282;  337,779;11272,542; 1,04869
 248,13; 1297,147;  326,586;11280,047; 1,05253
 248,73; 1332,044;  341,941;11505,646; 1,05213
 249,33; 1361,887;  347,648;11886,436; 1,05602
 249,93; 1403,523;  355,854;12402,773; 1,06065
 250,52; 1410,615;  320,376;12917,021; 1,06273
 251,12; 1502,849;  354,657;13668,991; 1,06430
 251,72; 1537,712;  332,946;14442,048; 1,06860
 252,32; 1586,975;  323,142;15252,449; 1,07235
 252,92; 1655,480;  319,625;16257,335; 1,07667
 253,52; 1756,599;  344,931;17276,217; 1,07896
 254,12; 1833,498;  346,708;18245,842; 1,08058
 254,72; 1902,766;  341,595;19301,486; 1,08439
 255,32; 1998,738;  353,358;20452,605; 1,08691
 255,92; 2059,891;  336,540;21473,709; 1,08867
 256,52; 2124,508;  341,163;22372,912; 1,09181
 257,11; 2178,864;  332,922;23223,660; 1,09344
 257,71; 2276,432;  363,648;24227,588; 1,09608
 258,31; 2331,295;  379,392;24809,926; 1,09747
 258,91; 2326,963;  337,271;25322,371; 1,09890
 259,51; 2461,661;  416,632;26053,363; 1,09816
 260,11; 2356,331;  315,246;26167,789; 1,10264
 260,71; 2434,667;  368,256;26618,178; 1,10391
 261,31; 2384,183;  328,066;26545,822; 1,10555
 261,90; 2397,223;  328,584;26815,539; 1,10735
 262,50; 2438,342;  355,006;27070,449; 1,10800
 263,10; 2432,229;  344,284;27264,180; 1,11035
 263,70; 2431,074;  328,851;27603,250; 1,11308
 264,30; 2458,764;  343,649;27807,199; 1,11342
 264,90; 2453,034;  329,243;28012,723; 1,11511
 265,50; 2458,554;  344,093;28062,455; 1,11757
 266,09; 2478,033;  362,293;28060,172; 1,11698
 266,69; 2391,037;  320,229;27609,492; 1,11985
 267,29; 2401,241;  348,330;27436,844; 1,12042
 267,89; 2347,313;  327,077;27069,955; 1,12181
 268,49; 2321,823;  332,949;26784,717; 1,12385
 269,09; 2315,830;  349,774;26583,254; 1,12526
 269,68; 2294,689;  350,298;26420,529; 1,12736
 270,28; 2258,311;  330,266;26128,607; 1,12647
 270,88; 2258,570;  344,483;26201,021; 1,13061
 271,48; 2240,355;  336,837;26052,754; 1,13064
 272,08; 2221,239;  324,767;26156,395; 1,13421
 272,68; 2267,640;  347,896;26542,258; 1,13496
 273,27; 2295,801;  337,847;27155,920; 1,13663
 273,87; 2348,298;  352,211;27713,570; 1,13696
 274,47; 2415,713;  368,810;28546,043; 1,13880
 275,07; 2420,796;  324,017;29346,957; 1,14119
 275,67; 2477,925;  342,096;30026,178; 1,14296
 276,26; 2527,443;  354,399;30667,236; 1,14456
 276,86; 2557,327;  335,265;31333,146; 1,14458
 277,46; 2589,927;  338,462;31950,135; 1,14738
 278,06; 2606,157;  320,875;32421,756; 1,14758
 278,66; 2658,339;  346,072;33043,078; 1,15047
 279,25; 2656,931;  319,012;33308,609; 1,14955
 279,85; 2708,694;  358,168;33672,867; 1,15147
 280,45; 2729,643;  348,762;34131,902; 1,15196
 281,05; 2712,659;  335,839;34245,816; 1,15433
 281,65; 2757,612;  375,927;34542,508; 1,15672
 282,24; 2763,872;  380,260;34644,141; 1,15760
 282,84; 2711,897;  328,879;34561,949; 1,15732
 283,44; 2730,276;  343,119;34750,844; 1,15878
 284,04; 2723,920;  340,057;34782,652; 1,15981
 284,63; 2719,168;  363,828;34727,520; 1,16405
 285,23; 2712,243;  328,020;34873,770; 1,16105
 285,83; 2713,697;  343,171;34850,891; 1,16307
 286,43; 2704,022;  343,839;34739,059; 1,16355
 287,02; 2735,896;  401,625;34383,414; 1,16309
 287,62; 2623,480;  329,739;33740,402; 1,16334
 288,22; 2597,854;  351,950;33117,680; 1,16403
 288,82; 2531,338;  346,985;32371,410; 1,16616
 289,41; 2488,951;  341,009;31804,914; 1,16579
 290,01; 2496,564;  364,071;31650,410; 1,16647
 290,61; 2525,191;  377,785;32036,463; 1,16858
 291,21; 2502,077;  332,162;32409,295; 1,16975
 291,80; 2532,030;  332,678;32792,180; 1,16905
 292,40; 2549,061;  345,497;32995,141; 1,17075
 293,00; 2560,518;  357,397;32992,750; 1,17065
 293,60; 2526,215;  335,086;32815,305; 1,17095
 294,19; 2518,123;  325,297;32738,178; 1,16971
 294,79; 2506,049;  331,451;32544,539; 1,17065
 295,39; 2519,280;  368,093;32224,730; 1,17052
 295,98; 2448,632;  327,771;31756,078; 1,17081
 296,58; 2405,569;  332,681;31028,328; 1,17050
 297,18; 2327,727;  315,494;30103,504; 1,17036
 297,77; 2320,364;  355,326;29573,545; 1,17228
 298,37; 2320,674;  345,247;29785,182; 1,17328
 298,97; 2390,922;  347,663;30829,982; 1,17372
 299,57; 2433,889;  317,408;31970,611; 1,17480
 300,16; 2515,255;  338,623;32820,301; 1,17385
 300,76; 2591,375;  358,279;33690,355; 1,17395
 301,36; 2617,300;  361,151;34230,387; 1,17644
 301,95; 2611,948;  316,304;34798,539; 1,17669
 302,55; 2682,905;  355,675;35232,215; 1,17569
 303,15; 2677,369;  325,198;35579,992; 1,17575
 303,74; 2725,611;  343,892;35958,609; 1,17474
 304,34; 2746,916;  342,763;36314,242; 1,17500
 304,94; 2755,398;  332,414;36606,313; 1,17524
 305,53; 2798,821;  362,732;36751,719; 1,17428
 306,13; 2782,871;  326,919;37116,277; 1,17550
 306,73; 2841,949;  367,097;37418,402; 1,17525
 307,32; 2834,102;  350,834;37456,480; 1,17442
 307,92; 2796,801;  337,315;37351,227; 1,17752
 308,52; 2826,736;  348,734;37361,039; 1,17424
 309,11; 2795,713;  342,473;37038,258; 1,17488
 309,71; 2826,721;  380,133;36921,305; 1,17422
 310,31; 2733,394;  293,010;36688,867; 1,17359
 310,90; 2748,469;  326,332;36533,406; 1,17459
 311,50; 2762,725;  335,359;36653,270; 1,17499
 312,10; 2767,244;  346,057;36714,820; 1,17670
 312,69; 2756,018;  318,119;36715,879; 1,17406
 313,29; 2780,582;  348,324;36717,684; 1,17473
 313,88; 2733,655;  312,732;36372,906; 1,17305
 314,48; 2744,031;  350,385;36023,531; 1,17328
 315,08; 2640,762;  297,472;35179,883; 1,17278
 315,67; 2655,123;  338,998;34849,176; 1,17319
 316,27; 2570,726;  303,228;34085,301; 1,17314
 316,87; 2565,249;  350,102;33402,055; 1,17379
 317,46; 2465,037;  297,755;32568,320; 1,17289
 318,06; 2473,164;  337,915;32186,400; 1,17364
 318,65; 2450,168;  323,899;31861,992; 1,17122
 319,25; 2441,922;  336,088;31660,230; 1,17246
 319,85; 2406,007;  321,136;31307,520; 1,17209
 320,44; 2413,278;  347,466;30953,359; 1,17071
 321,04; 2376,935;  326,130;30715,531; 1,17080
 321,63; 2373,698;  331,955;30592,676; 1,17088
 322,23; 2339,715;  292,786;30467,719; 1,16854
 322,83; 2371,134;  327,474;30515,471; 1,16943
 323,42; 2349,883;  332,559;30154,465; 1,16976
 324,02; 2308,414;  310,722;29795,477; 1,16907
 324,61; 2306,586;  314,178;29573,896; 1,16689
 325,21; 2324,617;  349,034;29261,375; 1,16539
 325,80; 2286,992;  329,734;29058,357; 1,16667
 326,40; 2411,101;  463,153;28794,930; 1,16270
 327,00; 2229,938;  315,383;28220,221; 1,16361
 327,59; 2214,383;  317,191;27992,975; 1,16399
 328,19; 2225,448;  341,769;27739,691; 1,16271
 328,78; 2192,201;  329,765;27395,291; 1,16234
 329,38; 2175,928;  331,314;27147,514; 1,16249
 329,97; 2162,005;  324,245;26933,363; 1,16074
 330,57; 2147,929;  329,113;26638,295; 1,16032
 331,16; 2118,759;  320,243;26262,889; 1,15910
 331,76; 2110,063;  321,632;25970,570; 1,15660
 332,36; 2111,065;  341,464;25631,371; 1,15507
 332,95; 2076,738;  325,077;25301,270; 1,15408
 333,55; 2101,912;  355,424;25195,656; 1,15299
 334,14; 2074,062;  314,962;25133,727; 1,14949
 334,74; 2105,360;  323,212;25246,543; 1,14566
 335,33; 2117,654;  310,558;25461,807; 1,14358
 335,93; 2158,171;  321,198;25871,047; 1,14329
 336,52; 2168,538;  311,280;26125,580; 1,14299
 337,12; 2242,904;  358,353;26425,563; 1,14089
 337,71; 2246,400;  331,151;26636,682; 1,13782
 338,31; 2297,647;  349,798;26886,191; 1,13429
 338,90; 2313,394;  359,218;27016,051; 1,13484
 339,50; 2323,485;  332,774;27194,943; 1,13013
 340,09; 2324,455;  330,714;27193,990; 1,12949
 340,69; 2322,671;  314,062;27191,070; 1,12649
 341,28; 2348,552;  334,554;27114,424; 1,12375
 341,88; 2321,902;  327,602;26736,094; 1,12195
 342,47; 2350,008;  337,203;26654,141; 1,11643
 343,07; 2375,144;  329,782;27111,371; 1,11707
 343,66; 2396,490;  319,164;27382,406; 1,11488
 344,26; 2469,789;  315,472;28215,020; 1,11229
 344,85; 2525,340;  321,748;28705,811; 1,10994
 345,45; 2587,564;  319,328;29186,760; 1,10472
 346,04; 2676,908;  363,798;29553,707; 1,10104
 346,64; 2665,944;  329,933;29681,266; 1,09915
 347,23; 2683,559;  312,849;29850,771; 1,09550
 347,83; 2762,566;  340,044;30171,982; 1,09041
 348,42; 2833,900;  379,754;30248,139; 1,08531
 349,01; 2793,338;  331,950;30043,031; 1,08174
 349,61; 2766,266;  289,497;29912,385; 1,07774
 350,20; 2847,299;  338,670;30007,291; 1,07286
 350,80; 2847,872;  315,180;30000,828; 1,06896
 351,39; 2869,206;  323,399;29855,340; 1,06447
 351,99; 2867,592;  307,432;29664,795; 1,05945
 352,58; 2894,601;  322,275;29502,271; 1,05476
 353,18; 2906,843;  350,621;29067,752; 1,05054
 353,77; 2862,458;  319,401;28610,082; 1,04629
 354,36; 2923,359;  363,933;28394,861; 1,03949
 354,96; 2872,115;  323,516;28010,125; 1,03597
 355,55; 2883,126;  312,437;27860,438; 1,03004
 356,15; 2907,749;  330,544;27708,092; 1,02625
 356,74; 2926,665;  314,084;27694,348; 1,02037
 357,34; 2967,823;  325,215;27665,398; 1,01477
 357,93; 3028,744;  330,943;27768,234; 1,00733
 358,52; 3032,729;  313,833;27667,830; 1,00263
 359,12; 3078,586;  329,189;27592,291; 0,99634
 359,71; 3085,387;  324,720;27354,119; 0,99082
 360,31; 3100,265;  319,603;27162,744; 0,98469
 360,90; 3086,931;  308,969;26681,320; 0,97742
 361,49; 3131,237;  327,363;26486,975; 0,96987
 362,09; 3123,852;  334,750;26122,840; 0,96595
 362,68; 3109,510;  327,317;25547,441; 0,95736
 363,28; 3053,771;  314,169;24740,945; 0,95018
 363,87; 2990,236;  303,751;23894,488; 0,94356
 364,46; 2983,768;  325,776;23378,375; 0,93817
 365,06; 3008,282;  347,966;23117,025; 0,93241
 365,65; 3021,346;  331,132;23129,883; 0,92812
 366,24; 3081,545;  317,893;23358,945; 0,92102
 366,84; 3154,580;  351,946;23333,225; 0,91381
 367,43; 3096,669;  306,425;22885,377; 0,90806
 368,03; 3117,319;  318,536;22545,277; 0,89991
 368,62; 3063,152;  305,168;21980,707; 0,89538
 369,21; 3086,433;  326,363;21691,662; 0,88879
 369,81; 3061,820;  320,450;21166,752; 0,88106
 370,40; 3034,859;  333,881;20593,443; 0,87511
 370,99; 3002,976;  303,137;20252,689; 0,86860
 371,59; 3047,864;  352,136;19950,072; 0,86153
 372,18; 2975,994;  288,455;19588,654; 0,85621
 372,77; 3006,293;  324,144;19257,648; 0,84875
 373,37; 2974,833;  311,511;18901,502; 0,84386
 373,96; 3013,300;  338,941;18713,932; 0,83701
 374,55; 2994,418;  304,986;18537,557; 0,83119
 375,15; 3076,132;  333,459;18660,934; 0,82493
 375,74; 3092,730;  303,049;18655,016; 0,81813
 376,33; 3133,218;  302,584;18703,863; 0,81296
 376,93; 3234,369;  329,167;18992,068; 0,80780
 377,52; 3352,809;  320,726;19512,434; 0,80137
 378,11; 3411,543;  293,780;19794,580; 0,79621
 378,71; 3577,638;  313,230;20435,998; 0,78988
 379,30; 3704,566;  313,851;20944,291; 0,78422
 379,89; 3743,440;  317,272;20801,727; 0,77662
 380,49; 3783,654;  345,041;20700,744; 0,77230
 381,08; 3795,878;  310,804;20625,727; 0,76560
 381,67; 3856,171;  345,783;20551,613; 0,76012
 382,26; 3915,342;  319,894;20787,807; 0,75532
 382,86; 4002,001;  312,601;20923,523; 0,74714
 383,45; 3982,338;  307,675;20545,236; 0,74094
 384,04; 4079,068;  406,782;20370,605; 0,73531
 384,64; 4024,670;  328,606;20173,217; 0,72990
 385,23; 4043,819;  316,863;20077,385; 0,72444
 385,82; 4148,283;  328,841;20318,053; 0,71880
 386,41; 4329,569;  326,346;20979,469; 0,71258
 387,01; 4607,221;  356,374;22083,871; 0,70853
 387,60; 4798,778;  334,946;22828,563; 0,70235
 388,19; 5024,124;  355,375;23536,895; 0,69594
 388,78; 5117,439;  339,551;23658,555; 0,68847
 389,38; 5030,364;  322,049;23018,770; 0,68310
 389,97; 5057,432;  305,389;22962,205; 0,67832
 390,56; 5235,578;  336,349;23379,697; 0,67242
 391,15; 5355,762;  305,641;23809,744; 0,66784
 391,75; 5603,547;  339,052;24484,654; 0,66148
 392,34; 5937,953;  332,839;25726,035; 0,65613
 392,93; 6164,959;  355,482;26294,539; 0,64982
 393,52; 6062,573;  309,316;25522,092; 0,64171
 394,12; 5894,085;  334,016;24551,967; 0,63906
 394,71; 5921,608;  288,556;24456,102; 0,63249
 395,30; 5957,336;  289,076;24281,830; 0,62663
 395,89; 6066,294;  349,207;24286,957; 0,62191
 396,49; 6213,675;  332,882;24648,262; 0,61645
 397,08; 6415,257;  317,254;25247,852; 0,61155
 397,67; 6805,061;  335,400;26447,506; 0,60596
 398,26; 7199,579;  335,033;27655,400; 0,59987
 398,85; 7250,560;  318,964;27441,340; 0,59249
 399,45; 7011,933;  314,448;26241,176; 0,58784
 400,04; 6966,030;  358,283;25589,816; 0,58189
 400,63; 6895,254;  307,540;25218,330; 0,57765
 401,22; 7020,537;  320,670;25276,740; 0,57111
 401,81; 6912,843;  309,772;24606,875; 0,56581
 402,41; 7018,880;  417,593;24442,350; 0,56103
 403,00; 6978,691;  318,910;24249,396; 0,55549
 403,59; 7059,980;  350,205;24188,498; 0,55057
 404,18; 7081,211;  314,737;24004,834; 0,54420
 404,77; 7186,460;  320,921;24121,902; 0,53992
 405,36; 7266,139;  300,147;24137,236; 0,53427
 405,96; 7105,132;  310,058;23220,281; 0,52784
 406,55; 6817,476;  302,865;22050,420; 0,52352
 407,14; 6769,701;  308,178;21666,172; 0,51923
 407,73; 6891,502;  340,507;21753,471; 0,51437
 408,32; 7127,571;  310,319;22386,865; 0,51032
 408,91; 7317,742;  326,255;22630,313; 0,50381
 409,51; 7281,836;  328,485;22229,078; 0,49826
 410,10; 7137,149;  282,990;21608,207; 0,49294
 410,69; 6972,925;  303,361;20784,264; 0,48725
 411,28; 6859,649;  307,734;20263,029; 0,48369
 411,87; 6834,663;  321,629;19937,164; 0,47882
 412,46; 6897,042;  314,398;19937,150; 0,47436
 413,05; 6915,119;  342,649;19703,902; 0,46920
 413,64; 6744,521;  295,160;19076,104; 0,46420
 414,24; 6547,497;  307,466;18259,146; 0,45892
 414,83; 6508,830;  343,144;17909,514; 0,45470
 415,42; 6466,819;  333,481;17641,084; 0,45054
 416,01; 6591,169;  314,763;17855,305; 0,44633
 416,60; 6740,989;  356,694;17976,219; 0,44088
 417,19; 6773,650;  314,747;17938,844; 0,43595
 417,78; 6898,675;  357,811;18033,521; 0,43174
 418,37; 6952,566;  329,286;18057,180; 0,42758
 418,96; 7119,680;  332,481;18329,111; 0,42350
 419,56; 7261,122;  331,036;18497,662; 0,41854
 420,15; 7434,004;  310,794;18813,955; 0,41457
 420,74; 7773,280;  320,123;19542,234; 0,41146
 421,33; 8243,874;  306,377;20561,982; 0,40686
 421,92; 8425,301;  340,829;20671,750; 0,40051
 422,51; 8004,333;  316,919;19414,900; 0,39521
 423,10; 7733,997;  330,832;18588,023; 0,39202
 423,69; 7492,767;  325,424;17824,646; 0,38766
 424,28; 7316,096;  309,095;17336,279; 0,38561
 424,87; 7376,718;  326,887;17276,467; 0,38098
 425,46; 7270,897;  351,671;16758,803; 0,37498
 426,05; 7005,360;  316,481;16081,728; 0,37235
 426,64; 6984,264;  305,841;15978,011; 0,37046
 427,24; 7429,770;  344,035;16804,531; 0,36606
 427,83; 7415,528;  274,800;16670,225; 0,36098
 428,42; 7494,600;  342,896;16661,053; 0,35826
 429,01; 7810,425;  285,055;17347,168; 0,35550
 429,60; 8678,894;  339,989;19104,686; 0,35223
 430,19; 9038,868;  332,868;19634,428; 0,34577
 430,78; 8644,780;  342,418;18565,756; 0,34143
 431,37; 7979,405;  372,486;16839,295; 0,33540
 431,96; 7374,093;  339,941;15553,188; 0,33501
 432,55; 7213,335;  321,509;15163,475; 0,33316
 433,14; 7621,018;  309,542;16044,614; 0,33286
 433,73; 8510,769;  343,113;17603,203; 0,32495
 434,32; 8059,297;  347,339;16363,508; 0,31739
 434,91; 7553,844;  291,776;15422,009; 0,31879
 435,50; 7672,499;  347,692;15482,210; 0,31517
 436,09; 7774,438;  332,149;15637,316; 0,31313
 436,68; 7882,877;  334,301;15719,837; 0,30925
 437,27; 7622,846;  327,328;15035,827; 0,30451
 437,86; 7652,410;  315,031;15078,494; 0,30365
 438,45; 7920,833;  331,853;15473,938; 0,30000
 439,04; 7925,639;  325,057;15358,031; 0,29620
 439,63; 7845,678;  318,390;15078,922; 0,29246
 440,22; 7915,444;  348,409;15141,058; 0,29112
 440,81; 8707,072;  337,444;16730,488; 0,29195
 441,40; 9684,558;  339,683;18374,789; 0,28555
 441,99; 9386,831;  321,980;17582,588; 0,27970
 442,58; 9154,887;  323,034;17141,949; 0,27975
 443,17; 9486,884;  311,104;17734,111; 0,27848
 443,76; 9682,737;  331,320;17910,510; 0,27412
 444,35; 9507,546;  328,073;17435,666; 0,27037
 444,94; 9524,018;  355,709;17382,781; 0,26885
 445,53; 9335,666;  329,913;16956,162; 0,26627
 446,12; 9469,385;  336,521;17131,809; 0,26458
 446,71; 9586,550;  352,864;17180,354; 0,26064
 447,29; 9301,936;  343,182;16581,564; 0,25830
 447,88; 9118,545;  332,495;16187,663; 0,25638
 448,47; 9203,485;  338,368;16266,140; 0,25447
 449,06; 9400,991;  314,734;16558,213; 0,25229
 449,65; 9577,921;  334,777;16710,730; 0,24839
 450,24; 9577,229;  342,382;16661,139; 0,24726
 450,83; 9427,951;  338,601;16286,759; 0,24418
 451,42; 9466,586;  328,151;16318,315; 0,24298
 452,01; 9591,124;  326,842;16439,650; 0,24036
 452,60; 9492,008;  346,208;16128,940; 0,23696
 453,19; 9198,898;  332,449;15558,139; 0,23483
 453,78; 9052,375;  310,454;15284,736; 0,23374
 454,37; 9187,585;  360,490;15422,726; 0,23207
 454,95; 9570,562;  348,093;16048,419; 0,23106
 455,54; 9712,382;  318,593;16136,688; 0,22631
 456,13; 9369,513;  346,680;15487,373; 0,22480
 456,72; 9446,996;  332,567;15641,142; 0,22521
 457,31; 9951,484;  345,328;16400,982; 0,22308
 457,90;10292,224;  349,150;16855,381; 0,22013
 458,49;10453,881;  336,551;17033,602; 0,21757
 459,08;10488,717;  328,696;17043,375; 0,21620
 459,67;10671,706;  364,575;17237,633; 0,21406
 460,25;10459,888;  348,060;16781,980; 0,21091
 460,84;10505,953;  341,515;16861,957; 0,21094
 461,43;10098,880;  328,759;16023,012; 0,20584
 462,02; 9331,670;  318,689;14794,191; 0,20577
 462,61; 9293,755;  308,528;14785,124; 0,20714
 463,20; 9963,418;  345,430;15756,023; 0,20474
 463,79;10501,758;  323,114;16559,641; 0,20280
 464,37;10816,481;  351,902;17023,367; 0,20225
 464,96;11266,864;  327,519;17646,559; 0,19953
 465,55;11653,858;  309,586;18158,438; 0,19683
 466,14;11049,157;  330,745;17039,525; 0,19281
 466,73; 9786,677;  325,655;15032,316; 0,19158
 467,32; 9431,771;  337,854;14508,477; 0,19264
 467,90; 9407,070;  323,250;14414,938; 0,19069
 468,49; 9150,628;  321,325;13916,073; 0,18744
 469,08; 8648,134;  321,166;13136,986; 0,18726
 469,67; 8374,490;  328,626;12695,922; 0,18670
 470,26; 8302,683;  313,395;12559,830; 0,18550
 470,85; 8270,509;  299,552;12480,969; 0,18419
 471,43; 8355,261;  321,005;12602,268; 0,18430
 472,02; 8569,840;  316,632;12906,532; 0,18340
 472,61; 8934,172;  301,118;13437,555; 0,18231
 473,20; 9392,878;  358,280;14023,160; 0,17970
 473,79; 9313,083;  346,202;13830,846; 0,17720
 474,37; 9262,367;  338,464;13780,721; 0,17792
 474,96; 9810,187;  330,287;14583,107; 0,17710
 475,55; 9785,015;  314,761;14403,431; 0,17251
 476,14; 9305,169;  311,537;13683,688; 0,17227
 476,72; 9081,828;  331,043;13303,588; 0,17098
 477,31; 8844,952;  316,057;12985,107; 0,17185
 477,90; 9378,265;  318,904;13738,083; 0,17063
 478,49; 9321,719;  318,129;13549,364; 0,16718
 479,08; 9108,245;  332,413;13243,997; 0,16769
 479,66; 9510,340;  310,728;13875,031; 0,16863
 480,25; 9815,569;  311,043;14219,396; 0,16535
 480,84; 9523,029;  308,632;13730,607; 0,16335
 481,43; 9793,450;  347,375;14142,333; 0,16447
 482,01; 9727,622;  292,309;13942,782; 0,16039
 482,60; 9153,638;  346,524;13098,231; 0,16073
 483,19; 9094,345;  310,527;13048,366; 0,16141
 483,78; 9523,577;  322,650;13672,611; 0,16165
 484,36;10356,907;  311,520;14891,580; 0,16179
 484,95;12421,644;  344,823;18579,404; 0,17894
 485,54;27815,129;  328,117;40502,590; 0,16482
 486,12;29553,627;  323,706;40410,520; 0,13717
 486,71;13909,668;  310,591;18751,363; 0,13227
 487,30;10598,056;  335,957;14819,509; 0,14964
 487,89; 8989,852;  325,748;12514,656; 0,14824
 488,47; 8272,422;  295,591;11603,951; 0,15157
 489,06; 8277,537;  316,463;11575,978; 0,15055
 489,65; 8103,738;  355,341;11266,909; 0,14868
 490,23; 7869,646;  361,139;10942,286; 0,14898
 490,82; 7858,669;  303,619;10937,221; 0,14844
 491,41; 7840,618;  326,297;10870,940; 0,14714
 492,00; 7686,890;  345,532;10651,551; 0,14731
 492,58; 7694,148;  324,445;10621,289; 0,14525
 493,17; 7754,190;  333,966;10700,254; 0,14521
 493,76; 7800,209;  398,260;10736,825; 0,14511
 494,34; 7758,336;  350,544;10645,819; 0,14295
 494,93; 7444,538;  343,493;10161,253; 0,14069
 495,52; 7361,067;  328,559;10177,805; 0,14629
 496,10; 8264,813;  317,407;11400,070; 0,14442
 496,69; 8089,976;  352,159;10928,375; 0,13571
 497,28; 7048,897;  393,059; 9517,639; 0,13701
 497,86; 6831,352;  324,829; 9317,378; 0,14053
 498,45; 7105,400;  312,333; 9695,438; 0,14028
 499,04; 7436,972;  350,916;10122,075; 0,13954
 499,62; 7558,222;  376,735;10220,077; 0,13693
 500,21; 7146,618;  346,371; 9636,579; 0,13550
 500,80; 7122,168;  318,063; 9697,120; 0,13939
 501,38; 7477,558;  328,892;10114,727; 0,13637
 501,97; 7455,460;  333,129;10052,751; 0,13503
 502,55; 7394,956;  323,333; 9987,355; 0,13564
 503,14; 7407,607;  322,978; 9953,820; 0,13335
 503,73; 7155,128;  313,898; 9580,801; 0,13180
 504,31; 6805,971;  311,573; 9120,442; 0,13238
 504,90; 6910,491;  349,119; 9251,674; 0,13252
 505,49; 6861,211;  320,179; 9180,311; 0,13179
 506,07; 7048,987;  335,290; 9422,761; 0,13148
 506,66; 6871,867;  302,735; 9120,313; 0,12784
 507,24; 6389,038;  313,190; 8517,741; 0,13045
 507,83; 6575,900;  303,041; 8787,331; 0,13115
 508,42; 6615,154;  289,609; 8758,297; 0,12672
 509,00; 6356,229;  338,337; 8399,396; 0,12695
 509,59; 6254,724;  336,317; 8273,204; 0,12745
 510,17; 6296,227;  327,608; 8317,195; 0,12665
 510,76; 6194,395;  344,803; 8158,958; 0,12576
 511,34; 6059,024;  312,100; 7965,839; 0,12444
 511,93; 5791,342;  325,068; 7615,515; 0,12506
 512,52; 5723,562;  324,009; 7525,500; 0,12506
 513,10; 5735,131;  316,527; 7511,817; 0,12316
 513,69; 5623,741;  334,197; 7359,125; 0,12322
 514,27; 5505,029;  319,883; 7190,599; 0,12224
 514,86; 5269,831;  350,522; 6843,645; 0,12055
 515,44; 5194,420;  304,801; 6795,849; 0,12304
 516,03; 5406,702;  331,216; 7055,729; 0,12218
 516,61; 5429,035;  351,743; 7047,037; 0,12014
 517,20; 5205,289;  305,505; 6757,669; 0,11953
 517,79; 5049,804;  351,295; 6549,768; 0,12032
 518,37; 5123,634;  328,449; 6661,492; 0,12081
 518,96; 5471,933;  437,029; 7058,706; 0,11898
 519,54; 5232,390;  296,059; 6743,821; 0,11600
 520,13; 4925,684;  345,298; 6327,904; 0,11599
 520,71; 4912,694;  307,564; 6347,159; 0,11777
 521,30; 5090,892;  323,702; 6553,108; 0,11618
 521,88; 4958,708;  313,611; 6381,205; 0,11602
 522,47; 5112,561;  339,170; 6578,267; 0,11629
 523,05; 5228,662;  331,082; 6718,754; 0,11536
 523,64; 5444,968;  332,276; 7008,169; 0,11586
 524,22; 5544,708;  328,083; 7126,842; 0,11504
 524,81; 5531,206;  324,383; 7085,186; 0,11343
 525,39; 5644,539;  333,523; 7270,596; 0,11600
 525,98; 5859,353;  319,088; 7529,497; 0,11443
 526,56; 6073,031;  331,801; 7810,998; 0,11485
 527,15; 6260,094;  326,330; 8029,121; 0,11332
 527,73; 6352,422;  358,773; 8150,000; 0,11391
 528,32; 6757,341;  327,102; 8700,708; 0,11469
 528,90; 7183,511;  319,242; 9211,103; 0,11240
 529,49; 7122,506;  326,499; 9084,329; 0,11014
 530,07; 7057,159;  319,326; 9020,797; 0,11107
 530,66; 7164,413;  362,735; 9147,239; 0,11110
 531,24; 7213,292;  355,365; 9209,779; 0,11097
 531,82; 7277,239;  333,281; 9279,736; 0,11004
 532,41; 7365,060;  335,565; 9393,586; 0,11011
 532,99; 7814,013;  342,162; 9986,318; 0,11084
 533,58; 8027,560;  372,468;10193,546; 0,10821
 534,16; 7859,397;  332,112; 9991,844; 0,10833
 534,75; 7929,037;  369,301;10039,107; 0,10691
 535,33; 7734,354;  325,694; 9797,634; 0,10670
 535,92; 7460,646;  313,586; 9428,243; 0,10561
 536,50; 7231,099;  342,084; 9137,723; 0,10611
 537,08; 7285,080;  307,677; 9259,770; 0,10823
 537,67; 7790,118;  359,655; 9875,081; 0,10741
 538,25; 8054,013;  343,448;10185,392; 0,10599
 538,84; 8203,429;  366,201;10378,470; 0,10637
 539,42; 8247,210;  338,703;10406,311; 0,10483
 540,00; 8153,316;  346,201;10308,475; 0,10587
 540,59; 8429,677;  357,330;10646,413; 0,10538
 541,17; 8674,071;  357,702;10925,381; 0,10405
 541,76; 8871,903;  406,348;11157,524; 0,10380
 542,34; 8861,826;  349,575;11150,021; 0,10340
 542,92; 8944,867;  323,025;11231,487; 0,10216
 543,51; 9132,655;  340,954;11483,552; 0,10291
 544,09; 9386,404;  342,869;11768,570; 0,10154
 544,68; 9459,942;  338,745;11846,358; 0,10093
 545,26; 9221,713;  322,037;11528,122; 0,10008
 545,84; 9067,100;  345,898;11355,218; 0,10118
 546,43; 9274,660;  352,237;11633,034; 0,10186
 547,01; 9797,680;  341,794;12328,290; 0,10299
 547,59;10596,589;  333,287;13295,950; 0,10141
 548,18;10798,642;  319,020;13477,768; 0,09887
 548,76;10410,056;  343,821;12956,009; 0,09792
 549,34;10385,263;  347,592;12959,278; 0,09914
 549,93;10709,672;  331,908;13396,520; 0,09999
 550,51;10956,487;  341,259;13655,715; 0,09839
 551,09;11245,911;  332,512;14064,419; 0,09977
 551,68;12237,100;  325,956;15313,372; 0,09977
 552,26;12907,886;  319,078;16054,329; 0,09689
 552,84;12976,839;  330,176;16126,793; 0,09659
 553,43;13340,949;  330,518;16609,824; 0,09734
 554,01;13575,617;  327,864;16846,107; 0,09582
 554,59;13916,887;  334,176;17304,756; 0,09671
 555,18;14633,231;  315,864;18210,252; 0,09685
 555,76;15122,063;  296,268;18770,006; 0,09554
 556,34;15174,036;  334,064;18803,180; 0,09501
 556,93;15354,785;  332,732;19037,109; 0,09521
 557,51;15673,618;  379,596;19407,863; 0,09488
 558,09;15873,286;  325,126;19653,461; 0,09452
 558,68;15822,118;  310,223;19578,646; 0,09418
 559,26;16199,281;  305,494;20079,125; 0,09486
 559,84;16899,432;  338,257;20928,541; 0,09457
 560,42;17519,877;  323,273;21632,443; 0,09312
 561,01;17686,766;  329,274;21801,416; 0,09239
 561,59;17655,180;  343,752;21761,336; 0,09244
 562,17;17710,404;  320,015;21822,777; 0,09218
 562,75;18023,240;  303,459;22212,414; 0,09216
 563,34;18572,279;  350,306;22840,463; 0,09140
 563,92;18953,805;  334,385;23309,400; 0,09129
 564,50;19383,545;  347,287;23816,904; 0,09092
 565,08;19533,959;  332,575;23990,188; 0,09064
 565,67;19875,238;  315,524;24407,879; 0,09052
 566,25;20393,141;  324,361;25043,109; 0,09051
 566,83;21174,623;  310,043;26002,693; 0,09040
 567,41;21923,779;  307,694;26864,346; 0,08940
 568,00;22507,262;  318,602;27578,098; 0,08939
 568,58;23426,982;  330,325;28691,645; 0,08918
 569,16;24700,566;  308,204;30254,402; 0,08909
 569,74;25987,549;  323,078;31694,836; 0,08721
 570,33;26443,791;  307,979;32238,350; 0,08697
 570,91;27340,100;  335,354;33287,762; 0,08645
 571,49;28164,771;  365,136;34196,570; 0,08528
 572,07;27603,537;  409,648;33379,770; 0,08365
 572,65;27245,721;  325,620;33166,969; 0,08634
 573,24;29100,396;  314,094;35402,422; 0,08598
 573,82;30479,904;  345,978;36940,250; 0,08436
 574,40;30762,346;  307,643;37206,457; 0,08336
 574,98;30134,604;  325,149;36321,063; 0,08190
 575,56;29191,574;  342,797;35305,594; 0,08348
 576,15;30043,406;  331,283;36444,941; 0,08474
 576,73;31610,434;  345,304;38271,254; 0,08388
 577,31;33658,777;  332,864;40730,934; 0,08358
 577,89;34505,465;  434,001;41372,285; 0,07974
 578,47;31837,064;  342,360;38100,273; 0,07877
 579,05;30626,691;  335,571;36961,430; 0,08247
 579,64;31582,629;  327,978;38149,742; 0,08283
 580,22;32370,709;  315,740;38993,223; 0,08156
 580,80;34266,664;  321,439;41491,742; 0,08381
 581,38;37255,547;  336,699;44793,004; 0,08069
 581,96;36281,063;  345,000;43209,230; 0,07656
 582,54;33389,766;  320,162;39879,230; 0,07782
 583,12;31541,576;  334,679;37817,656; 0,07958
 583,71;31711,025;  348,958;38114,020; 0,08069
 584,29;33177,859;  366,913;39877,848; 0,08070
 584,87;34477,016;  312,704;41334,879; 0,07945
 585,45;34686,156;  339,094;41426,105; 0,07781
 586,03;33596,473;  329,060;40190,816; 0,07854
 586,61;33610,910;  324,046;40341,074; 0,07997
 587,19;34536,016;  343,024;41367,223; 0,07910
 587,77;34157,613;  290,143;40869,516; 0,07852
 588,35;33725,234;  318,539;40352,125; 0,07859
 588,94;33477,578;  349,931;40041,684; 0,07851
 589,52;33517,414;  300,891;40129,879; 0,07885
 590,10;33596,434;  301,820;40146,281; 0,07799
 590,68;33706,102;  373,949;40275,145; 0,07812
 591,26;33808,477;  317,385;40355,266; 0,07754
 591,84;33924,043;  322,392;40498,332; 0,07761
 592,42;34771,383;  344,590;41463,688; 0,07715
 593,00;35368,715;  360,912;42085,039; 0,07622
 593,58;34927,008;  342,212;41580,227; 0,07641
 594,16;34666,254;  344,508;41272,152; 0,07645
 594,74;34938,551;  355,773;41625,711; 0,07677
 595,32;34897,691;  341,253;41529,727; 0,07625
 595,90;34813,625;  325,978;41413,207; 0,07604
 596,49;34503,273;  296,176;41045,473; 0,07600
 597,07;34763,164;  292,327;41379,789; 0,07626
 597,65;34755,676;  300,479;41331,523; 0,07586
 598,23;34943,055;  299,564;41577,086; 0,07609
 598,81;35232,344;  308,069;41853,652; 0,07540
 599,39;35341,203;  320,103;41912,695; 0,07469
 599,97;35111,766;  322,623;41645,785; 0,07475
 600,55;35255,895;  314,854;41803,969; 0,07460
 601,13;35152,504;  328,370;41685,090; 0,07467
 601,71;35043,113;  319,533;41543,684; 0,07453
 602,29;35341,180;  325,929;41870,480; 0,07426
 602,87;35352,836;  312,996;41923,664; 0,07464
 603,45;35263,059;  325,775;41771,234; 0,07419
 604,03;35157,996;  321,136;41569,832; 0,07337
 604,61;35290,105;  356,322;41745,887; 0,07365
 605,19;35327,012;  323,982;41766,016; 0,07334
 605,77;35450,895;  326,862;41873,930; 0,07294
 606,35;35470,289;  319,249;41888,105; 0,07283
 606,93;35443,344;  313,952;41878,719; 0,07305
 607,51;35349,133;  324,376;41718,586; 0,07256
 608,09;35413,156;  311,962;41753,996; 0,07212
 608,67;35224,504;  322,717;41587,102; 0,07273
 609,25;35208,023;  331,263;41568,695; 0,07276
 609,83;35233,328;  317,536;41591,645; 0,07266
 610,41;35117,102;  303,102;41406,539; 0,07212
 610,99;35145,652;  329,845;41430,703; 0,07207
 611,57;35090,594;  296,668;41312,484; 0,07145
 612,14;35111,020;  327,389;41321,168; 0,07134
 612,72;34945,777;  311,352;41132,063; 0,07137
 613,30;35035,582;  338,004;41230,605; 0,07135
 613,88;34929,004;  304,866;41069,121; 0,07090
 614,46;34575,438;  317,355;40657,109; 0,07097
 615,04;34871,621;  390,636;40986,840; 0,07091
 615,62;34480,492;  316,223;40512,039; 0,07061
 616,20;34417,047;  328,045;40450,391; 0,07077
 616,78;34444,719;  340,163;40455,777; 0,07050
 617,36;34345,406;  313,250;40316,891; 0,07021
 617,94;34100,750;  298,413;39993,602; 0,06979
 618,52;33968,809;  316,710;39775,777; 0,06913
 619,10;33937,531;  310,413;39729,207; 0,06901
 619,67;33791,543;  336,620;39548,621; 0,06896
 620,25;33802,328;  294,345;39558,551; 0,06885
 620,83;33569,297;  342,349;39293,797; 0,06903
 621,41;33609,020;  341,967;39334,578; 0,06897
 621,99;33708,410;  334,842;39444,766; 0,06888
 622,57;33545,785;  316,482;39241,633; 0,06871
 623,15;33857,203;  317,151;39589,309; 0,06852
 623,73;33882,145;  297,936;39630,352; 0,06862
 624,30;33977,430;  319,229;39719,484; 0,06841
 624,88;33728,301;  308,892;39418,344; 0,06828
 625,46;33780,535;  287,449;39491,773; 0,06838
 626,04;34050,355;  338,445;39816,785; 0,06858
 626,62;34014,305;  319,101;39770,898; 0,06850
 627,20;34156,645;  347,512;39916,352; 0,06832
 627,78;34254,133;  323,829;39982,750; 0,06775
 628,35;34162,859;  369,525;39958,555; 0,06874
 628,93;34338,527;  298,776;40187,492; 0,06886
 629,51;34568,258;  340,636;40457,410; 0,06895
 630,09;34472,535;  306,174;40318,043; 0,06859
 630,67;34796,145;  335,580;40651,246; 0,06815
 631,25;34901,289;  334,271;40764,391; 0,06804
 631,82;35149,977;  331,582;41041,664; 0,06789
 632,40;35219,797;  332,740;41070,559; 0,06733
 632,98;35340,961;  322,858;41180,293; 0,06698
 633,56;35541,176;  336,585;41407,766; 0,06694
 634,14;35761,613;  328,623;41658,645; 0,06686
 634,71;35898,055;  329,821;41828,160; 0,06697
 635,29;35891,117;  309,582;41882,195; 0,06758
 635,87;35983,840;  319,399;41937,875; 0,06705
 636,45;36192,168;  345,444;42147,574; 0,06675
 637,03;36355,992;  324,225;42377,664; 0,06712
 637,60;36468,066;  387,676;42442,207; 0,06654
 638,18;36510,410;  322,112;42542,125; 0,06695
 638,76;36684,918;  317,712;42688,344; 0,06636
 639,34;36885,629;  355,373;42919,641; 0,06639
 639,91;36923,039;  342,463;42960,344; 0,06634
 640,49;36947,949;  332,583;42977,680; 0,06621
 641,07;37024,012;  317,446;43053,051; 0,06605
 641,65;37097,848;  323,705;43054,727; 0,06520
 642,22;37010,285;  330,095;42969,789; 0,06538
 642,80;37145,473;  309,574;43106,195; 0,06514
 643,38;37170,777;  294,997;43093,547; 0,06469
 643,96;37354,719;  334,317;43347,492; 0,06516
 644,53;37228,598;  314,966;43184,020; 0,06496
 645,11;37391,590;  333,772;43354,309; 0,06480
 645,69;37488,691;  352,438;43445,477; 0,06461
 646,27;37415,977;  329,755;43364,070; 0,06460
 646,84;37622,742;  343,851;43576,367; 0,06435
 647,42;37351,441;  325,864;43251,027; 0,06421
 648,00;37451,891;  283,483;43358,266; 0,06405
 648,57;37692,078;  312,573;43627,871; 0,06401
 649,15;37713,109;  311,762;43661,477; 0,06410
 649,73;37845,496;  339,455;43789,941; 0,06389
 650,31;37796,785;  310,378;43735,688; 0,06387
 650,88;37863,590;  332,071;43831,801; 0,06409
 651,46;37972,441;  327,577;43935,359; 0,06386
 652,04;37925,227;  292,353;43873,652; 0,06373
 652,61;38187,277;  318,683;44179,199; 0,06379
 653,19;38355,180;  340,782;44350,820; 0,06360
 653,77;38403,930;  308,318;44411,324; 0,06359
 654,34;38621,273;  320,458;44727,211; 0,06424
 654,92;39943,391;  321,574;46571,719; 0,06718
 655,50;49413,863;  313,950;57444,570; 0,06579
 656,07;53051,395;  307,380;60268,895; 0,05570
 656,65;43930,957;  299,769;49930,965; 0,05596
 657,23;40032,379;  460,825;46215,434; 0,06305
 657,80;39710,758;  330,195;45891,578; 0,06331
 658,38;39799,168;  332,308;45956,336; 0,06296
 658,95;40062,555;  329,914;46250,957; 0,06286
 659,53;40110,805;  305,723;46266,742; 0,06245
 660,11;40421,824;  295,209;46640,125; 0,06257
 660,68;40921,031;  364,466;47165,227; 0,06219
 661,26;41306,836;  315,738;47669,266; 0,06266
 661,84;41529,270;  339,481;47928,133; 0,06271
 662,41;41990,879;  304,854;48444,648; 0,06251
 662,99;42299,551;  310,867;48809,129; 0,06259
 663,56;42680,961;  300,030;49197,164; 0,06211
 664,14;43117,813;  305,529;49640,113; 0,06158
 664,72;43335,492;  312,342;49911,949; 0,06178
 665,29;43926,277;  316,532;50538,797; 0,06131
 665,87;44255,211;  316,858;50927,691; 0,06140
 666,44;44503,715;  320,804;51239,988; 0,06163
 667,02;44668,344;  316,233;51415,176; 0,06150
 667,59;45077,230;  297,903;51851,457; 0,06118
 668,17;45441,359;  311,462;52243,398; 0,06097
 668,75;45649,820;  326,259;52469,746; 0,06088
 669,32;45678,840;  328,418;52486,012; 0,06074
 669,90;45867,461;  306,151;52673,059; 0,06046
 670,47;45905,477;  283,951;52748,133; 0,06069
 671,05;45932,758;  315,813;52759,055; 0,06056
 671,62;45879,715;  293,350;52670,484; 0,06031
 672,20;46099,457;  303,629;52915,754; 0,06026
 672,77;45917,129;  325,582;52726,363; 0,06045
 673,35;45888,086;  330,765;52685,742; 0,06040
 673,93;46168,668;  307,001;53014,137; 0,06042
 674,50;46155,770;  317,357;53024,859; 0,06064
 675,08;46181,059;  312,307;53038,137; 0,06051
 675,65;46353,023;  277,426;53216,438; 0,06030
 676,23;46670,457;  323,072;53543,258; 0,06005
 676,80;46905,738;  322,498;53900,023; 0,06075
 677,38;46888,016;  293,385;53868,008; 0,06062
 677,95;47266,727;  320,784;54339,199; 0,06094
 678,53;47598,531;  315,324;54684,531; 0,06065
 679,10;47466,520;  334,090;54514,672; 0,06052
 679,68;47844,781;  304,076;54926,871; 0,06031
 680,25;48392,000;  348,572;55554,227; 0,06035
 680,83;48103,508;  295,945;55138,211; 0,05962
 681,40;48441,328;  335,938;55532,293; 0,05972
 681,98;48234,648;  278,101;55335,977; 0,05997
 682,55;48418,367;  314,640;55580,426; 0,06028
 683,12;48510,418;  304,096;55685,441; 0,06026
 683,70;48563,375;  319,866;55718,035; 0,06006
 684,27;48556,020;  297,935;55712,422; 0,06005
 684,85;48865,109;  320,288;56038,406; 0,05985
 685,42;48883,523;  299,078;55991,926; 0,05930
 686,00;48915,547;  322,617;56050,535; 0,05950
 686,57;49454,094;  327,113;56713,582; 0,05985
 687,15;49374,578;  310,196;56621,039; 0,05983
 687,72;49545,113;  295,796;56781,586; 0,05954
 688,29;49496,719;  308,812;56715,680; 0,05947
 688,87;49678,023;  313,068;56937,207; 0,05958
 689,44;49744,504;  277,837;56983,203; 0,05931
 690,02;49976,332;  311,190;57270,969; 0,05952
 690,59;50088,766;  317,683;57420,836; 0,05968
 691,17;50298,004;  310,463;57627,164; 0,05942
 691,74;50507,625;  318,976;57871,406; 0,05946
 692,31;50540,523;  299,322;57852,164; 0,05901
 692,89;50750,875;  289,585;58121,703; 0,05921
 693,46;51144,543;  300,031;58590,320; 0,05935
 694,04;51075,965;  306,357;58540,563; 0,05957
 694,61;51276,219;  325,723;58794,379; 0,05977
 695,18;51501,273;  301,256;59028,563; 0,05957
 695,76;51476,785;  315,192;59022,719; 0,05975
 696,33;51727,203;  307,038;59281,770; 0,05953
 696,90;52050,723;  312,088;59613,645; 0,05925
 697,48;52046,191;  303,791;59606,820; 0,05923
 698,05;52181,250;  291,743;59763,484; 0,05923
 698,62;52433,340;  327,446;60044,328; 0,05921
 699,20;52502,711;  299,856;60113,863; 0,05911
 699,77;52742,828;  314,795;60333,434; 0,05872
 700,35;52832,578;  292,728;60468,285; 0,05893
 700,92;52674,168;  317,694;60292,422; 0,05900
 701,49;52974,395;  311,787;60598,523; 0,05872
 702,07;53307,371;  335,063;60971,645; 0,05869
 702,64;53274,676;  296,679;60882,664; 0,05828
 703,21;53293,281;  330,262;60962,133; 0,05873
 703,78;53444,258;  326,505;61124,387; 0,05865
 704,36;53391,094;  325,258;61058,793; 0,05861
 704,93;53539,246;  308,884;61206,875; 0,05844
 705,50;53418,645;  289,800;61101,320; 0,05866
 706,08;53744,746;  300,853;61521,926; 0,05900
 706,65;53708,910;  326,393;61438,508; 0,05873
 707,22;54008,859;  324,602;61828,801; 0,05906
 707,80;54073,184;  330,628;61867,340; 0,05882
 708,37;53908,848;  313,505;61605,164; 0,05827
 708,94;53647,352;  308,571;61356,707; 0,05863
 709,51;53955,680;  306,300;61705,441; 0,05860
 710,09;54066,309;  323,966;61762,090; 0,05812
 710,66;54162,586;  316,193;61914,949; 0,05842
 711,23;54262,652;  328,865;62005,336; 0,05826
 711,81;54219,559;  314,325;61964,410; 0,05830
 712,38;54208,246;  292,038;62005,492; 0,05866
 712,95;54533,719;  327,621;62353,750; 0,05853
 713,52;54429,977;  327,043;62318,785; 0,05911
 714,10;54386,625;  312,710;62218,641; 0,05874
 714,67;54626,699;  331,232;62476,828; 0,05865
 715,24;54540,242;  323,915;62402,285; 0,05881
 715,81;54206,957;  287,431;62018,852; 0,05876
 716,38;54670,031;  307,131;62531,781; 0,05866
 716,96;54692,223;  318,920;62580,766; 0,05884
 717,53;54711,070;  304,943;62558,520; 0,05852
 718,10;54800,695;  323,469;62643,547; 0,05841
 718,67;54634,961;  330,276;62472,113; 0,05855
 719,25;55094,984;  298,375;62944,988; 0,05814
 719,82;54999,148;  377,228;62808,266; 0,05803
 720,39;54620,082;  303,241;62398,375; 0,05812
 720,96;55044,055;  296,244;62881,996; 0,05811
 721,53;54900,078;  299,480;62650,535; 0,05765
 722,11;54928,953;  281,389;62742,840; 0,05804
 722,68;54884,129;  327,785;62705,746; 0,05819
 723,25;55221,461;  307,952;63116,324; 0,05834
 723,82;55375,609;  331,174;63303,469; 0,05844
 724,39;55274,340;  316,807;63204,863; 0,05854
 724,96;55613,457;  305,220;63551,828; 0,05825
 725,54;55612,773;  321,836;63525,164; 0,05809
 726,11;55567,531;  291,179;63470,418; 0,05804
 726,68;55489,598;  288,705;63350,008; 0,05782
 727,25;55629,438;  297,305;63504,883; 0,05779
 727,82;55389,125;  289,544;63162,441; 0,05732
 728,39;55654,125;  299,681;63499,219; 0,05756
 728,96;55918,211;  299,283;63776,574; 0,05740
 729,54;56029,164;  300,103;63968,535; 0,05784
 730,11;56054,648;  337,509;64052,082; 0,05825
 730,68;56023,520;  285,535;63979,152; 0,05794
 731,25;55870,332;  318,545;63756,156; 0,05765
 731,82;56402,414;  318,208;64444,973; 0,05820
 732,39;56292,828;  268,700;64245,633; 0,05765
 732,96;56379,289;  307,720;64394,926; 0,05803
 733,53;56267,641;  295,169;64226,301; 0,05774
 734,10;56693,492;  314,159;64681,398; 0,05754
 734,68;56571,656;  308,575;64579,781; 0,05779
 735,25;56585,785;  290,588;64659,172; 0,05820
 735,82;56446,961;  296,231;64426,020; 0,05770
 736,39;56768,809;  324,217;64790,184; 0,05771
 736,96;56576,797;  289,826;64522,348; 0,05735
 737,53;56728,566;  332,999;64684,570; 0,05731
 738,10;56561,031;  286,965;64524,641; 0,05748
 738,67;56517,383;  313,768;64547,660; 0,05800
 739,24;56609,023;  318,754;64647,926; 0,05797
 739,81;56323,578;  286,317;64246,738; 0,05743
 740,38;56035,008;  265,693;63894,938; 0,05726
 740,95;56135,785;  313,810;64094,309; 0,05788
 741,52;56158,930;  294,572;64138,941; 0,05799
 742,09;55533,395;  335,325;63400,000; 0,05786
 742,66;55981,586;  287,955;63930,457; 0,05794
 743,23;55855,012;  325,504;63861,508; 0,05850
 743,80;55982,672;  321,287;63920,262; 0,05790
 744,37;55673,301;  306,657;63629,094; 0,05831
 744,94;55546,020;  312,923;63506,762; 0,05848
 745,51;55510,441;  293,406;63430,633; 0,05821
 746,09;55512,320;  343,325;63432,191; 0,05826
 746,66;54891,609;  311,835;62717,250; 0,05819
 747,23;55126,230;  367,531;63029,645; 0,05855
 747,80;54859,281;  301,000;62722,141; 0,05847
 748,36;54455,359;  299,373;62309,301; 0,05881
 748,93;54588,840;  285,269;62515,016; 0,05917
 749,50;54573,680;  330,052;62509,871; 0,05930
 750,07;54547,930;  315,115;62458,895; 0,05914
 750,64;54381,008;  299,761;62287,793; 0,05926
 751,21;53891,461;  322,134;61758,969; 0,05951
 751,78;53866,797;  316,247;61843,027; 0,06030
 752,35;53707,191;  316,670;61687,902; 0,06050
 752,92;53538,449;  313,349;61531,895; 0,06077
 753,49;53274,738;  395,979;61249,926; 0,06101
 754,06;53252,883;  324,078;61286,328; 0,06137
 754,63;53254,215;  336,594;61323,238; 0,06163
 755,20;52668,457;  294,201;60628,602; 0,06145
 755,77;53032,617;  350,320;61044,719; 0,06148
 756,34;52883,465;  323,436;60891,141; 0,06159
 756,91;52589,184;  299,796;60502,496; 0,06120
 757,48;52725,844;  302,325;60617,301; 0,06090
 758,05;52667,891;  342,878;60616,121; 0,06142
 758,62;52103,348;  301,748;59962,781; 0,06135
 759,19;52173,852;  342,804;60078,652; 0,06165
 759,75;52014,270;  293,597;59875,891; 0,06145
 760,32;51848,918;  310,073;59687,145; 0,06148
 760,89;51592,695;  312,382;59418,660; 0,06168
 761,46;51329,844;  325,175;59138,051; 0,06186
 762,03;51385,488;  318,215;59301,371; 0,06259
 762,60;51142,680;  299,471;59012,582; 0,06250
 763,17;51157,059;  313,260;59051,059; 0,06268
 763,74;51164,238;  318,523;59026,262; 0,06244
 764,31;50937,664;  290,586;58810,379; 0,06275
 764,87;51003,113;  307,496;58805,121; 0,06217
 765,44;50669,598;  300,535;58436,098; 0,06228
 766,01;50348,352;  317,691;58118,613; 0,06270
 766,58;50544,945;  425,667;58303,934; 0,06251
 767,15;50161,242;  321,290;57853,297; 0,06233
 767,72;50111,629;  299,160;57847,125; 0,06269
 768,28;50113,762;  315,279;57838,043; 0,06262
 768,85;50108,156;  311,225;57804,789; 0,06242
 769,42;49854,063;  309,198;57498,457; 0,06232
 769,99;49565,859;  266,828;57202,051; 0,06254
 770,56;49776,645;  308,844;57456,320; 0,06267
 771,13;49486,223;  303,447;57146,938; 0,06287
 771,69;49358,621;  294,733;57023,488; 0,06304
 772,26;49279,484;  290,979;56930,391; 0,06302
 772,83;49062,516;  289,812;56740,016; 0,06349
 773,40;49054,340;  300,031;56754,953; 0,06369
 773,97;48959,961;  321,824;56645,035; 0,06371
 774,53;48849,008;  314,214;56500,926; 0,06358
 775,10;48676,313;  294,720;56314,457; 0,06366
 775,67;48737,551;  311,183;56417,555; 0,06393
 776,24;48637,188;  324,866;56272,063; 0,06372
 776,81;48383,566;  296,098;56015,332; 0,06397
 777,37;48407,715;  294,718;56125,988; 0,06462
 777,94;48200,297;  286,967;55903,113; 0,06474
 778,51;48227,199;  318,080;55942,879; 0,06485
 779,08;47955,457;  330,286;55651,563; 0,06506
 779,64;47863,906;  284,849;55593,563; 0,06538
 780,21;47981,324;  326,649;55734,867; 0,06547
 780,78;47884,266;  304,198;55697,520; 0,06603
 781,35;47680,500;  302,508;55430,723; 0,06580
 781,91;47553,199;  282,697;55245,191; 0,06548
 782,48;47486,664;  291,540;55172,008; 0,06552
 783,05;47066,461;  294,483;54661,047; 0,06535
 783,62;47062,031;  316,959;54645,105; 0,06529
 784,18;46915,305;  309,535;54466,676; 0,06522
 784,75;46672,566;  297,952;54159,391; 0,06500
 785,32;46629,230;  315,954;54133,324; 0,06522
 785,88;46417,453;  296,394;53863,848; 0,06500
 786,45;46412,262;  330,633;53940,609; 0,06572
 787,02;46308,949;  286,043;53828,840; 0,06573
 787,58;46133,371;  339,116;53631,488; 0,06585
 788,15;45762,938;  325,032;53241,086; 0,06617
 788,72;45457,781;  300,505;52868,504; 0,06599
 789,29;45297,426;  291,204;52758,941; 0,06662
 789,85;45097,078;  316,500;52526,379; 0,06666
 790,42;44892,641;  300,100;52300,992; 0,06675
 790,99;44695,109;  332,619;52053,645; 0,06665
 791,55;44460,770;  307,239;51812,156; 0,06688
 792,12;44209,340;  307,578;51564,309; 0,06727
 792,69;43914,668;  323,698;51247,180; 0,06752
 793,25;43732,090;  297,541;51005,109; 0,06724
 793,82;43753,672;  330,087;51047,500; 0,06743
 794,38;43482,465;  281,243;50766,188; 0,06767
 794,95;43140,020;  311,536;50358,746; 0,06765
 795,52;42802,051;  302,542;49915,789; 0,06721
 796,08;42594,984;  295,108;49663,688; 0,06711
 796,65;42229,762;  336,981;49246,875; 0,06726
 797,22;42087,508;  285,934;49103,797; 0,06739
 797,78;41741,898;  310,187;48690,797; 0,06734
 798,35;41590,191;  320,543;48505,617; 0,06728
 798,91;41404,172;  336,272;48303,512; 0,06744
 799,48;41186,559;  323,579;48135,617; 0,06821
 800,05;40920,957;  304,558;47800,164; 0,06795
 800,61;40595,352;  311,774;47427,004; 0,06803
 801,18;40483,590;  325,977;47309,113; 0,06817
 801,74;40086,086;  326,350;46846,953; 0,06820
 802,31;39958,387;  336,183;46716,785; 0,06840
 802,88;39571,602;  308,802;46326,848; 0,06895
 803,44;39482,355;  321,415;46187,004; 0,06863
 804,01;39307,770;  315,745;45997,039; 0,06876
 804,57;39034,191;  320,844;45672,934; 0,06874
 805,14;38837,422;  311,717;45472,922; 0,06901
 805,70;38544,121;  326,073;45106,684; 0,06882
 806,27;38549,039;  298,593;45083,895; 0,06850
 806,83;38253,457;  325,882;44761,727; 0,06878
 807,40;37898,969;  307,358;44412,215; 0,06940
 807,96;37939,895;  397,191;44449,367; 0,06944
 808,53;37817,754;  298,201;44322,324; 0,06943
 809,10;37685,520;  319,820;44173,082; 0,06953
 809,66;37565,129;  322,380;44066,234; 0,06988
 810,23;37276,352;  358,999;43758,402; 0,07025
 810,79;37186,070;  323,782;43689,832; 0,07057
 811,36;37055,363;  310,285;43531,344; 0,07050
 811,92;37210,098;  319,544;43705,250; 0,07043
 812,49;37015,805;  294,841;43474,938; 0,07037
 813,05;37092,121;  333,493;43582,422; 0,07062
 813,62;36961,707;  315,176;43412,680; 0,07042
 814,18;36791,305;  332,002;43183,230; 0,07015
 814,75;36541,223;  314,925;42901,285; 0,07025
 815,31;36584,984;  355,635;42955,973; 0,07035
 815,87;36512,840;  350,794;42885,309; 0,07049
 816,44;36187,988;  315,810;42549,320; 0,07090
 817,00;36042,293;  303,363;42329,133; 0,07037
 817,57;35947,695;  324,169;42253,355; 0,07078
 818,13;35558,938;  324,656;41770,871; 0,07052
 818,70;35349,059;  348,135;41565,949; 0,07101
 819,26;35391,625;  379,891;41562,035; 0,07050
 819,83;35264,754;  343,678;41415,488; 0,07046
 820,39;35171,027;  347,317;41334,035; 0,07077
 820,95;34970,586;  322,510;41081,191; 0,07054
 821,52;34671,008;  315,366;40740,387; 0,07065
 822,08;34655,621;  334,492;40737,992; 0,07086
 822,65;34523,355;  329,988;40596,523; 0,07100
 823,21;34216,020;  317,251;40203,523; 0,07064
 823,78;34385,078;  356,007;40438,852; 0,07111
 824,34;34168,363;  307,374;40183,773; 0,07102
 824,90;34247,914;  365,286;40291,438; 0,07128
 825,47;34040,840;  347,563;40073,594; 0,07153
 826,03;33910,609;  319,152;39918,398; 0,07146
 826,60;33719,715;  306,715;39686,176; 0,07135
 827,16;33888,730;  351,624;39908,438; 0,07170
 827,72;33768,902;  334,517;39787,492; 0,07189
 828,29;33457,102;  304,930;39437,758; 0,07203
 828,85;33618,211;  321,210;39617,621; 0,07195
 829,41;33423,738;  315,806;39406,234; 0,07214
 829,98;33488,398;  341,352;39448,457; 0,07181
 830,54;33380,195;  323,148;39348,680; 0,07208
 831,10;33287,473;  323,168;39261,637; 0,07233
 831,67;33291,406;  351,097;39286,512; 0,07262
 832,23;33183,383;  336,750;39184,047; 0,07287
 832,79;33025,484;  345,636;39022,223; 0,07317
 833,36;33040,234;  342,219;39036,254; 0,07312
 833,92;32971,383;  336,142;38925,148; 0,07278
 834,48;32859,504;  301,575;38779,023; 0,07255
 835,05;32812,711;  328,304;38773,152; 0,07316
 835,61;32856,676;  323,150;38816,496; 0,07305
 836,17;32833,031;  325,660;38845,570; 0,07370
 836,74;32823,539;  328,649;38814,098; 0,07348
 837,30;32677,602;  322,926;38637,809; 0,07343
 837,86;32569,920;  318,565;38512,160; 0,07344
 838,43;32398,346;  305,841;38363,832; 0,07404
 838,99;32482,104;  318,417;38441,797; 0,07383
 839,55;32434,332;  299,417;38408,387; 0,07405
 840,11;32376,811;  321,033;38362,875; 0,07436
 840,68;32287,525;  336,363;38269,094; 0,07453
 841,24;32169,104;  285,552;38122,633; 0,07435
 841,80;32091,125;  320,108;37978,410; 0,07383
 842,36;32124,287;  321,694;38083,344; 0,07459
 842,93;32082,129;  319,411;38053,176; 0,07481
 843,49;31989,240;  366,913;37923,219; 0,07469
 844,05;31940,941;  305,716;37885,328; 0,07478
 844,61;31805,957;  314,599;37720,914; 0,07475
 845,18;31693,082;  301,592;37579,570; 0,07464
 845,74;31665,723;  284,378;37592,324; 0,07513
 846,30;31592,809;  337,548;37492,375; 0,07509
 846,86;31526,414;  321,694;37375,344; 0,07461
 847,43;31543,494;  321,333;37395,883; 0,07461
 847,99;31279,490;  309,936;37079,863; 0,07456
 848,55;31258,602;  312,666;37081,375; 0,07487
 849,11;31233,232;  320,285;37038,496; 0,07474
 849,67;31118,436;  300,368;36913,082; 0,07483
 850,24;30960,670;  301,304;36744,723; 0,07506
 850,80;30842,197;  286,930;36617,105; 0,07518
 851,36;30951,846;  347,116;36743,574; 0,07527
 851,92;30785,281;  314,449;36580,047; 0,07561
 852,48;30668,719;  305,809;36449,813; 0,07569
 853,04;30614,475;  328,915;36354,129; 0,07537
 853,61;30566,436;  318,231;36297,203; 0,07535
 854,17;30463,318;  400,897;36161,066; 0,07538
 854,73;30326,949;  299,187;36036,578; 0,07560
 855,29;30190,764;  312,773;35881,414; 0,07572
 855,85;30043,939;  302,419;35707,727; 0,07571
 856,41;29976,898;  292,769;35638,445; 0,07581
 856,97;30027,203;  304,102;35680,738; 0,07562
 857,54;29863,334;  295,658;35460,859; 0,07530
 858,10;29804,865;  333,714;35406,227; 0,07557
 858,66;29615,035;  308,520;35188,742; 0,07562
 859,22;29602,213;  324,280;35154,438; 0,07542
 859,78;29351,824;  298,046;34900,406; 0,07590
 860,34;29329,887;  301,792;34857,613; 0,07570
 860,90;29383,391;  338,488;34910,375; 0,07565
 861,46;29177,100;  295,754;34708,359; 0,07610
 862,02;29039,750;  317,067;34529,262; 0,07596
 862,59;28884,979;  310,633;34362,523; 0,07616
 863,15;28845,334;  293,426;34337,504; 0,07641
 863,71;28839,506;  280,842;34332,258; 0,07640
 864,27;28928,330;  374,218;34430,199; 0,07652
 864,83;28593,813;  311,931;34005,742; 0,07604
 865,39;28633,598;  339,177;34049,379; 0,07606
 865,95;28485,975;  316,807;33897,254; 0,07631
 866,51;28409,197;  305,200;33828,723; 0,07658
 867,07;28270,111;  312,336;33668,098; 0,07667
 867,63;28169,010;  317,432;33554,676; 0,07678
 868,19;28193,635;  289,338;33597,973; 0,07689
 868,75;28046,893;  301,998;33463,352; 0,07745
 869,31;28098,516;  329,777;33494,523; 0,07712
 869,87;27951,123;  316,560;33335,813; 0,07731
 870,43;27902,848;  356,853;33308,383; 0,07782
 870,99;27811,604;  315,452;33220,332; 0,07799
 871,55;27693,088;  312,249;33108,828; 0,07838
 872,11;27671,320;  316,338;33088,535; 0,07847
 872,67;27692,111;  352,711;33102,332; 0,07842
 873,23;27615,563;  299,347;33061,512; 0,07895
 873,79;27583,164;  354,573;32991,648; 0,07869
 874,35;27549,887;  347,159;32961,270; 0,07879
 874,91;27293,270;  297,263;32650,561; 0,07862
 875,47;27228,949;  288,816;32585,131; 0,07875
 876,03;27315,162;  327,973;32714,684; 0,07921
 876,59;27225,166;  322,643;32636,449; 0,07960
 877,15;27252,912;  324,030;32647,736; 0,07930
 877,71;27341,506;  322,240;32759,000; 0,07936
 878,27;27360,459;  281,653;32754,273; 0,07889
 878,83;27487,906;  319,673;32887,520; 0,07873
 879,39;27429,869;  297,736;32804,969; 0,07850
 879,95;27630,736;  321,370;33038,867; 0,07847
 880,51;27685,127;  341,356;33096,695; 0,07842
 881,07;27684,830;  333,153;33095,410; 0,07839
 881,63;27704,320;  288,909;33150,910; 0,07870
 882,19;27876,463;  316,446;33393,605; 0,07925
 882,75;27971,156;  335,680;33501,969; 0,07923
 883,31;28053,297;  318,500;33617,559; 0,07941
 883,87;28115,832;  293,793;33670,785; 0,07906
 884,42;28299,619;  309,203;33887,332; 0,07905
 884,98;28354,723;  280,210;33974,578; 0,07925
 885,54;28519,150;  323,803;34173,340; 0,07938
 886,10;28612,760;  336,520;34298,176; 0,07957
 886,66;28720,637;  316,866;34411,715; 0,07931
 887,22;28753,174;  328,759;34458,691; 0,07944
 887,78;28778,523;  331,806;34497,457; 0,07956
 888,34;28740,680;  305,816;34449,758; 0,07946
 888,89;28754,986;  302,503;34459,141; 0,07935
 889,45;28774,420;  352,143;34489,418; 0,07957
 890,01;28548,213;  315,263;34238,980; 0,07975
 890,57;28431,070;  295,553;34111,547; 0,07987
 891,13;28319,803;  315,993;33997,707; 0,08018
 891,69;28112,652;  305,879;33767,906; 0,08040
 892,25;27943,434;  313,553;33556,363; 0,08032
 892,80;27782,617;  318,526;33397,730; 0,08079
 893,36;27542,709;  326,720;33125,590; 0,08103
 893,92;27341,939;  335,283;32913,453; 0,08146
 894,48;27157,959;  319,859;32666,150; 0,08107
 895,04;27109,270;  323,796;32588,756; 0,08083
 895,60;26899,666;  354,773;32343,150; 0,08101
 896,15;26726,133;  315,370;32119,750; 0,08071
 896,71;26514,014;  349,406;31854,127; 0,08066
 897,27;26361,936;  325,453;31667,689; 0,08055
 897,83;26257,227;  337,246;31560,869; 0,08085
 898,39;26032,670;  330,226;31269,174; 0,08053
 898,94;26016,982;  352,626;31297,063; 0,08125
 899,50;25636,412;  287,546;30850,461; 0,08124
 900,06;25505,594;  292,363;30727,797; 0,08175
 900,62;25529,619;  322,500;30739,631; 0,08160
 901,17;25566,082;  320,186;30802,000; 0,08185
 901,73;25273,232;  295,453;30432,104; 0,08154
 902,29;25224,197;  321,456;30364,086; 0,08149
 902,85;25111,953;  321,973;30208,764; 0,08120
 903,40;25049,367;  392,953;30099,547; 0,08092
 903,96;24979,537;  335,000;30043,344; 0,08116
 904,52;24811,787;  328,823;29813,859; 0,08074
 905,08;24656,369;  307,183;29644,199; 0,08093
 905,63;24694,732;  337,750;29683,807; 0,08093
 906,19;24604,010;  341,419;29614,199; 0,08153
 906,75;24456,207;  315,976;29437,990; 0,08148
 907,30;24339,223;  322,819;29329,543; 0,08199
 907,86;24206,449;  339,146;29184,607; 0,08227
 908,42;24128,977;  363,153;29041,650; 0,08160
 908,98;24077,094;  329,620;29019,066; 0,08210
 909,53;23927,254;  313,676;28824,916; 0,08185
 910,09;23919,811;  352,446;28805,350; 0,08182
 910,65;23855,072;  320,183;28725,104; 0,08168
 911,20;23683,676;  315,103;28542,783; 0,08204
 911,76;23669,184;  321,103;28519,920; 0,08198
 912,32;23626,766;  352,133;28480,619; 0,08226
 912,87;23482,254;  334,750;28316,291; 0,08237
 913,43;23320,873;  325,569;28157,490; 0,08290
 913,99;23307,916;  332,426;28124,311; 0,08265
 914,54;23162,240;  333,346;27947,199; 0,08264
 915,10;23142,641;  344,863;27948,434; 0,08307
 915,66;22995,150;  333,843;27772,287; 0,08307
 916,21;23042,402;  358,893;27821,607; 0,08303
 916,77;22901,209;  329,266;27647,113; 0,08288
 917,32;22776,453;  342,020;27506,791; 0,08309
 917,88;22623,754;  314,479;27318,801; 0,08295
 918,44;22587,680;  330,539;27283,377; 0,08314
 918,99;22432,619;  350,903;27115,893; 0,08353
 919,55;22342,332;  330,373;27002,000; 0,08339
 920,10;22286,770;  329,690;26937,877; 0,08344
 920,66;22232,393;  335,120;26853,430; 0,08316
 921,22;21937,934;  293,323;26517,900; 0,08336
 921,77;22118,787;  339,780;26720,053; 0,08324
 922,33;21846,596;  322,516;26438,211; 0,08398
 922,88;21870,303;  326,373;26443,873; 0,08361
 923,44;21683,219;  339,389;26272,783; 0,08459
 924,00;21693,109;  360,833;26269,199; 0,08440
 924,55;21524,209;  310,946;26086,520; 0,08460
 925,11;21524,279;  327,656;26085,363; 0,08464
 925,66;21374,379;  330,030;25899,340; 0,08458
 926,22;21305,879;  315,150;25805,840; 0,08435
 926,77;21285,162;  342,913;25787,227; 0,08457
 927,33;21159,076;  326,976;25647,494; 0,08474
 927,88;20976,496;  324,806;25408,188; 0,08443
 928,44;21001,686;  308,036;25442,143; 0,08443
 928,99;20907,832;  322,900;25342,744; 0,08474
 929,55;20892,832;  365,373;25320,967; 0,08483
 930,10;20739,219;  333,683;25134,137; 0,08471
 930,66;20722,779;  349,669;25150,053; 0,08540
 931,21;20596,063;  330,066;25002,613; 0,08545
 931,77;20454,223;  331,843;24813,777; 0,08517
 932,32;20389,660;  311,293;24737,750; 0,08513
 932,88;20387,689;  331,919;24742,340; 0,08534
 933,43;20285,336;  354,546;24600,811; 0,08512
 933,99;20136,760;  317,446;24447,779; 0,08547
 934,54;20056,180;  356,553;24343,576; 0,08552
 935,10;19947,779;  325,620;24237,484; 0,08587
 935,65;19909,162;  317,573;24160,721; 0,08529
 936,21;19820,990;  302,919;24081,447; 0,08575
 936,76;19780,463;  357,750;24023,211; 0,08581
 937,32;19703,943;  316,490;23926,971; 0,08558
 937,87;19632,047;  367,013;23831,037; 0,08563
 938,43;19605,652;  337,379;23809,449; 0,08571
 938,98;19506,320;  346,606;23696,680; 0,08590
 939,53;19257,826;  307,536;23426,150; 0,08635
 940,09;19319,973;  364,039;23507,891; 0,08669
 940,64;19143,434;  330,086;23288,033; 0,08647
 941,20;19116,473;  327,520;23265,367; 0,08665
 941,75;19022,699;  335,949;23133,123; 0,08635
 942,30;18969,529;  326,609;23077,324; 0,08648
 942,86;18792,297;  316,020;22871,221; 0,08663
 943,41;18807,260;  323,383;22878,430; 0,08645
 943,97;18688,020;  328,923;22731,424; 0,08645
 944,52;18651,311;  349,120;22719,500; 0,08717
 945,07;18570,609;  328,856;22631,084; 0,08728
 945,63;18513,643;  361,253;22525,557; 0,08672
 946,18;18389,836;  313,329;22422,061; 0,08745
 946,74;18289,594;  329,896;22316,307; 0,08786
 947,29;18242,893;  345,383;22262,164; 0,08798
 947,84;18226,594;  345,463;22238,930; 0,08792
 948,40;18166,459;  354,283;22138,906; 0,08743
 948,95;18078,779;  374,699;21994,311; 0,08677
 949,50;17972,883;  320,853;21901,193; 0,08726
 950,06;17897,492;  315,343;21798,094; 0,08702
 950,61;17803,707;  317,013;21674,791; 0,08685
 951,16;17818,133;  341,699;21696,354; 0,08704
 951,72;17723,104;  328,953;21590,311; 0,08719
 952,27;17685,863;  316,356;21540,957; 0,08705
 952,82;17518,902;  341,856;21377,557; 0,08801
 953,38;17505,303;  347,293;21349,006; 0,08779
 953,93;17347,109;  316,866;21156,010; 0,08766
 954,48;17287,393;  304,520;21099,574; 0,08795
 955,03;17224,926;  320,563;21010,557; 0,08776
 955,59;17144,469;  337,883;20933,357; 0,08829
 956,14;17082,879;  324,349;20850,250; 0,08807
 956,69;16958,529;  313,336;20693,604; 0,08792
 957,24;16896,453;  324,863;20621,277; 0,08806
 957,80;16837,000;  332,193;20558,971; 0,08832
 958,35;16713,016;  345,060;20392,063; 0,08806
 958,90;16651,166;  328,349;20320,246; 0,08806
 959,46;16591,086;  314,813;20244,896; 0,08795
 960,01;16500,266;  321,210;20149,254; 0,08833
 960,56;16401,902;  311,023;20028,123; 0,08826
 961,11;16355,529;  341,780;19956,270; 0,08808
 961,66;16229,967;  297,353;19813,641; 0,08811
 962,22;16221,430;  327,990;19812,863; 0,08848
 962,77;16122,856;  332,829;19671,803; 0,08805
 963,32;15939,060;  307,109;19447,703; 0,08794
 963,87;15973,373;  324,520;19473,566; 0,08766
 964,43;15821,033;  314,126;19302,424; 0,08796
 964,98;15849,526;  368,533;19323,627; 0,08793
 965,53;15641,717;  307,970;19081,119; 0,08789
 966,08;15647,437;  346,866;19087,438; 0,08808
 966,63;15475,773;  328,900;18904,447; 0,08862
 967,18;15441,126;  326,566;18860,768; 0,08858
 967,74;15302,370;  338,280;18698,416; 0,08883
 968,29;15185,170;  312,139;18552,326; 0,08863
 968,84;15138,727;  312,696;18491,916; 0,08855
 969,39;14936,800;  309,376;18249,277; 0,08865
 969,94;14907,949;  331,393;18220,383; 0,08893
 970,49;14883,937;  334,493;18175,291; 0,08857
 971,05;14748,003;  325,690;18011,246; 0,08858
 971,60;14655,536;  334,683;17874,477; 0,08806
 972,15;14527,300;  320,906;17710,006; 0,08779
 972,70;14537,393;  361,250;17720,066; 0,08796
 973,25;14376,560;  335,423;17528,996; 0,08796
 973,80;14294,923;  341,199;17446,477; 0,08844
 974,35;14160,330;  313,656;17294,844; 0,08862
 974,90;14046,263;  325,913;17165,637; 0,08897
 975,46;13980,977;  335,093;17083,080; 0,08896
 976,01;13915,006;  340,206;17021,221; 0,08949
 976,56;13796,793;  336,873;16863,770; 0,08915
 977,11;13619,569;  319,639;16673,439; 0,08977
 977,66;13449,013;  311,886;16437,311; 0,08901
 978,21;13445,606;  338,949;16425,244; 0,08896
 978,76;13342,909;  315,729;16309,356; 0,08910
 979,31;13218,273;  341,560;16166,604; 0,08954
 979,86;13102,790;  321,590;16027,063; 0,08948
 980,41;13037,439;  339,889;15936,970; 0,08932
 980,96;12821,443;  308,419;15667,900; 0,08901
 981,51;12834,359;  354,233;15650,816; 0,08838
 982,06;12738,217;  320,483;15544,354; 0,08848
 982,61;12641,000;  368,573;15415,583; 0,08852
 983,16;12471,093;  337,389;15246,920; 0,08947
 983,72;12347,310;  340,720;15110,470; 0,08995
 984,27;12269,040;  352,810;15016,460; 0,09010
 984,82;12155,640;  332,116;14886,377; 0,09024
 985,37;12042,600;  331,829;14730,396; 0,08973
 985,92;11907,939;  323,743;14573,066; 0,08993
 986,47;11788,313;  326,916;14444,174; 0,09051
 987,02;11719,187;  363,246;14357,077; 0,09071
 987,57;11563,810;  334,663;14161,747; 0,09038
 988,12;11477,960;  326,046;14052,720; 0,09022
 988,67;11417,779;  344,076;13970,917; 0,09010
 989,22;11315,363;  343,116;13840,757; 0,08996
 989,76;11202,823;  342,810;13735,253; 0,09103
 990,31;11109,543;  357,053;13610,970; 0,09084
 990,86;10968,569;  331,393;13473,486; 0,09184
 991,41;10884,036;  334,376;13362,050; 0,09163
 991,96;10801,439;  340,823;13218,177; 0,09027
 992,51;10704,946;  365,150;13122,137; 0,09124
 993,06;10637,506;  376,736;13025,747; 0,09088
 993,61;10558,040;  391,900;12917,964; 0,09066
 994,16;10410,813;  366,063;12740,100; 0,09057
 994,71;10275,866;  336,563;12554,187; 0,08963
 995,26;10215,083;  356,479;12483,227; 0,08993
 995,81;10185,017;  411,453;12431,280; 0,08985
 996,36;10023,069;  336,840;12250,800; 0,08990
 996,91; 9936,510;  383,083;12125,714; 0,08961
 997,46; 9906,479;  416,060;12074,117; 0,08934
 998,00; 9711,189;  351,789;11870,943; 0,09017
 998,55; 9653,103;  362,436;11794,634; 0,09008
 999,10; 9522,423;  335,819;11633,977; 0,08985
 999,65; 9449,387;  357,443;11553,483; 0,09041
1000,20; 9376,017;  388,166;11491,830; 0,09181
1000,75; 9351,576;  427,319;11418,377; 0,09047
1001,30; 9159,036;  354,716;11218,967; 0,09130
1001,85; 9080,153;  358,786;11119,483; 0,09126
1002,39; 9001,206;  379,113;11021,630; 0,09143
1002,94; 8867,050;  338,780;10859,420; 0,09118
1003,49; 8805,083;  365,256;10797,493; 0,09204
1004,04; 8766,659;  387,306;10738,090; 0,09176
1004,59; 8670,866;  415,506;10605,120; 0,09142
1005,14; 8509,319;  364,629;10427,347; 0,09184
1005,68; 8439,609;  355,613;10330,743; 0,09129
1006,23; 8341,010;  361,889;10233,000; 0,09241
1006,78; 8288,810;  368,796;10152,743; 0,09179
1007,33; 8186,380;  348,536;10034,720; 0,09196
1007,88; 8101,439;  358,353; 9932,217; 0,09217
1008,42; 8071,513;  383,746; 9875,250; 0,09153
1008,97; 7976,763;  363,986; 9764,117; 0,09159
1009,52; 7896,200;  357,970; 9674,340; 0,09198
1010,07; 7798,563;  335,506; 9567,073; 0,09236
1010,62; 7718,516;  347,163; 9471,924; 0,09267
1011,16; 7680,000;  363,590; 9415,930; 0,09246
1011,71; 7616,306;  352,223; 9345,510; 0,09274
1012,26; 7576,010;  389,313; 9282,820; 0,09254
1012,81; 7511,636;  366,883; 9203,290; 0,09229
1013,35; 7500,193;  382,616; 9200,693; 0,09304
1013,90; 7421,419;  364,389; 9102,137; 0,09278
1014,45; 7333,620;  335,509; 9002,356; 0,09288
1015,00; 7277,223;  350,053; 8929,097; 0,09288
1015,54; 7235,693;  358,333; 8864,333; 0,09230
1016,09; 7124,203;  333,803; 8738,930; 0,09265
1016,64; 7022,220;  330,663; 8596,644; 0,09177
1017,19; 6895,473;  317,963; 8462,384; 0,09280
1017,73; 6874,653;  383,216; 8394,490; 0,09136
1018,28; 6683,286;  347,166; 8180,037; 0,09210
1018,83; 6592,766;  358,283; 8042,693; 0,09081
1019,37; 6451,246;  333,733; 7885,047; 0,09145
1019,92; 6381,100;  361,786; 7791,400; 0,09142
1020,47; 6264,200;  352,613; 7663,210; 0,09225
1021,01; 6185,979;  340,866; 7571,914; 0,09241
1021,56; 6054,736;  316,960; 7420,100; 0,09271
1022,11; 6050,580;  344,176; 7412,487; 0,09295
1022,65; 6093,957;  492,306; 7422,330; 0,09242
1023,20; 5926,103;  376,536; 7246,720; 0,09271
1023,75; 5826,126;  358,120; 7138,394; 0,09342
1024,29; 5752,563;  340,039; 7031,867; 0,09214
1024,84; 5674,919;  354,376; 6948,097; 0,09317
1025,39; 5654,056;  389,063; 6918,900; 0,09350
1025,93; 5554,167;  346,919; 6809,707; 0,09381
1026,48; 5481,453;  338,616; 6720,283; 0,09373
1027,02; 5492,979;  394,599; 6708,773; 0,09288
1027,57; 5353,570;  345,359; 6542,934; 0,09254
1028,12; 5287,313;  333,916; 6471,030; 0,09306
1028,66; 5242,893;  348,806; 6404,217; 0,09247
1029,21; 5153,283;  333,713; 6304,967; 0,09306
1029,76; 5106,320;  339,803; 6241,130; 0,09275
1030,30; 5091,996;  380,986; 6207,597; 0,09230
1030,85; 5007,610;  370,063; 6108,160; 0,09248
1031,39; 4952,896;  370,733; 6040,474; 0,09249
1031,94; 4892,750;  343,223; 5972,513; 0,09249
1032,48; 4787,256;  324,673; 5838,660; 0,09188
1033,03; 4769,636;  329,169; 5817,297; 0,09200
1033,58; 4754,046;  368,229; 5782,210; 0,09147
1034,12; 4677,530;  360,720; 5686,133; 0,09119
1034,67; 4645,846;  399,076; 5649,287; 0,09212
1035,21; 4555,636;  365,473; 5551,737; 0,09262
1035,76; 4503,103;  344,960; 5484,537; 0,09203
1036,30; 4442,510;  348,030; 5413,547; 0,09243
1036,85; 4415,653;  380,396; 5377,013; 0,09280
1037,39; 4390,653;  416,466; 5334,184; 0,09252
1037,94; 4272,653;  349,196; 5207,890; 0,09285
1038,48; 4223,830;  338,643; 5141,737; 0,09211
1039,03; 4201,566;  373,493; 5108,557; 0,09235
1039,57; 4133,620;  366,930; 5024,490; 0,09220
1040,12; 4099,070;  364,776; 4981,644; 0,09214
1040,66; 4012,030;  348,836; 4879,820; 0,09233
1041,21; 3950,603;  352,936; 4811,423; 0,09317
1041,75; 3915,563;  351,656; 4769,130; 0,09325
1042,30; 3997,666;  459,243; 4828,610; 0,09161
1042,84; 3815,716;  342,613; 4642,390; 0,09273
1043,39; 3754,486;  344,900; 4561,894; 0,09230
1043,93; 3716,116;  343,566; 4520,994; 0,09295
1044,48; 3695,530;  362,359; 4489,937; 0,09284
1045,02; 3628,870;  343,566; 4416,013; 0,09328
1045,56; 3566,080;  331,503; 4340,793; 0,09325
1046,11; 3578,063;  386,669; 4333,570; 0,09228
1046,65; 3496,533;  347,596; 4235,907; 0,09160
1047,20; 3436,340;  330,393; 4167,097; 0,09176
1047,74; 3426,663;  381,756; 4147,160; 0,09224
1048,29; 3328,060;  322,349; 4045,970; 0,09302
1048,83; 3313,353;  347,240; 4011,200; 0,09176
1049,37; 3286,660;  351,456; 3983,350; 0,09249
1049,92; 3246,620;  356,576; 3936,160; 0,09293
1050,46; 3171,640;  342,889; 3850,480; 0,09341
1051,01; 3159,870;  352,203; 3833,090; 0,09334
1051,55; 3090,443;  341,103; 3753,723; 0,09386
1052,09; 3044,943;  343,909; 3693,370; 0,09344
1052,64; 3032,766;  354,220; 3679,400; 0,09392
1053,18; 3063,173;  423,710; 3684,783; 0,09184
1053,72; 2916,790;  334,703; 3533,437; 0,09301
1054,27; 2880,900;  335,210; 3491,753; 0,09341
1054,81; 2879,250;  364,639; 3485,010; 0,09374
1055,35; 2792,826;  327,106; 3388,440; 0,09397
1055,90; 2805,700;  366,440; 3392,307; 0,09359
1056,44; 2727,436;  329,490; 3299,423; 0,09291
1056,98; 2718,440;  355,383; 3278,530; 0,09238
1057,53; 2693,786;  362,373; 3248,990; 0,09277
1058,07; 2627,383;  345,326; 3171,057; 0,09280
1058,61; 2599,773;  351,180; 3140,150; 0,09353
1059,16; 2581,756;  368,546; 3108,967; 0,09279
1059,70; 2527,096;  347,456; 3047,287; 0,09295
1060,24; 2569,970;  412,843; 3069,753; 0,09050
1060,79; 2437,903;  341,276; 2943,720; 0,09386
1061,33; 2425,260;  362,563; 2916,407; 0,09276
1061,87; 2374,330;  337,963; 2852,107; 0,09153
1062,41; 2346,650;  340,879; 2816,517; 0,09141
1062,96; 2314,800;  341,323; 2783,697; 0,09258
1063,50; 2280,126;  341,463; 2740,027; 0,09245
1064,04; 2246,193;  337,530; 2700,487; 0,09273
1064,58; 2222,500;  343,353; 2670,340; 0,09283
1065,13; 2208,013;  356,750; 2655,497; 0,09402
1065,67; 2140,950;  322,683; 2574,650; 0,09290
1066,21; 2157,236;  364,620; 2595,043; 0,09490
1066,75; 2122,820;  353,186; 2547,043; 0,09333
1067,30; 2079,780;  347,159; 2501,800; 0,09467
1067,84; 2052,256;  342,446; 2455,923; 0,09205
1068,38; 2040,736;  350,966; 2449,183; 0,09402
1068,92; 2036,536;  372,113; 2430,747; 0,09232
1069,47; 1999,303;  356,023; 2392,167; 0,09310
1070,01; 1999,323;  377,866; 2389,163; 0,09357
1070,55; 1945,963;  348,099; 2332,950; 0,09419
1071,09; 1923,000;  353,516; 2300,533; 0,09361
1071,63; 1932,390;  383,440; 2299,667; 0,09241
1072,17; 1861,846;  334,406; 2224,487; 0,09252
1072,72; 1854,163;  349,373; 2212,077; 0,09267
1073,26; 1931,800;  436,223; 2281,950; 0,09136
1073,80; 1819,110;  353,056; 2174,157; 0,09418
1074,34; 1805,870;  359,900; 2157,660; 0,09457
1074,88; 1874,910;  436,163; 2207,467; 0,09031
1075,42; 1760,713;  355,943; 2099,837; 0,09391
1075,97; 1747,966;  363,093; 2083,614; 0,09425
1076,51; 1729,163;  359,293; 2053,867; 0,09238
1077,05; 1687,150;  344,363; 2008,640; 0,09322
1077,59; 1693,500;  366,263; 2009,293; 0,09270
1078,13; 1673,966;  361,016; 1990,213; 0,09373
1078,67; 1637,270;  352,346; 1945,463; 0,09337
1079,21; 1740,560;  459,393; 2036,727; 0,09032
1079,75; 1624,403;  365,949; 1928,377; 0,09396
1080,30; 1542,853;  321,243; 1838,057; 0,09400
1080,84; 1587,053;  372,430; 1875,903; 0,09265
1081,38; 1537,770;  337,859; 1823,847; 0,09287
1081,92; 1537,376;  356,223; 1821,410; 0,09359
1082,46; 1541,683;  373,710; 1816,893; 0,09189
1083,00; 1506,046;  352,409; 1781,943; 0,09313
1083,54; 1508,903;  370,983; 1773,647; 0,09084
1084,08; 1478,433;  363,356; 1750,513; 0,09482
1084,62; 1479,160;  376,706; 1744,307; 0,09360
1085,16; 1447,460;  365,873; 1706,487; 0,09324
1085,70; 1433,560;  363,773; 1692,007; 0,09398
1086,24; 1388,136;  342,343; 1640,340; 0,09383
1086,78; 1393,246;  357,363; 1641,280; 0,09323
1087,32; 1409,540;  382,909; 1653,523; 0,09260
1087,86; 1368,860;  352,190; 1610,090; 0,09247
1088,40; 1359,910;  362,673; 1597,190; 0,09270
1088,94; 1378,000;  389,316; 1610,973; 0,09189
1089,48; 1334,230;  367,039; 1570,150; 0,09479
1090,02; 1305,973;  349,173; 1535,157; 0,09326
1090,56; 1330,703;  386,066; 1553,667; 0,09203
1091,10; 1318,350;  389,313; 1537,490; 0,09198
1091,64; 1294,246;  375,203; 1510,520; 0,09178
1092,18; 1283,613;  383,013; 1501,997; 0,09429
1092,72; 1222,136;  336,460; 1436,147; 0,09399
1093,26; 1260,750;  377,626; 1473,520; 0,09375
1093,80; 1236,533;  372,243; 1436,850; 0,09053
1094,34; 1210,000;  354,829; 1415,547; 0,09355
1094,88; 1219,553;  377,946; 1425,693; 0,09515
1095,42; 1231,763;  396,336; 1428,953; 0,09203
1095,96; 1182,780;  361,909; 1375,670; 0,09166
1096,50; 1174,723;  364,099; 1367,727; 0,09275
1097,04; 1158,360;  363,473; 1352,963; 0,09511
1097,58; 1154,456;  368,253; 1340,923; 0,09243
1098,12; 1139,920;  366,406; 1321,510; 0,09158
1098,66; 1148,696;  386,746; 1333,703; 0,09440
1099,20; 1125,730;  376,586; 1305,960; 0,09363
1099,73; 1106,166;  366,770; 1282,293; 0,09279
1100,27; 1114,640;  383,053; 1289,500; 0,09308

