
Integration time [ms]: 200,000
Averaging Nr. [scans]: 300
Smoothing Nr. [pixels]: 0
Data measured with spectrometer [name]: 2112124U1
Wave   ;Sample   ;Dark     ;Reference;Absorbance
[nm]   ;[counts] ;[counts] ;[counts] ;[A.U]

 176,03;  370,241;  360,085;  361,766;-0,78111
 176,64;  389,516;  383,568;  380,058; 0,00000
 177,24;  366,950;  360,240;  358,030; 0,00000
 177,84;  384,951;  376,289;  375,041; 0,00000
 178,44;  390,883;  382,372;  384,307;-0,64333
 179,05;  403,758;  395,102;  393,245; 0,00000
 179,65;  371,258;  363,385;  360,949; 0,00000
 180,25;  369,805;  358,266;  363,503;-0,34313
 180,85;  381,218;  370,726;  368,972; 0,00000
 181,45;  377,829;  370,023;  370,344; 0,00000
 182,06;  362,824;  356,396;  354,159; 0,00000
 182,66;  423,261;  411,715;  411,613; 0,00000
 183,26;  371,260;  366,866;  366,806; 0,00000
 183,86;  405,401;  396,660;  394,765; 0,00000
 184,46;  352,628;  344,907;  345,601; 0,00000
 185,07;  374,335;  365,721;  369,104;-0,40591
 185,67;  416,378;  385,432;  484,410; 0,50494
 186,27;  421,074;  392,948;  491,702; 0,54544
 186,87;  401,465;  374,503;  470,507; 0,55154
 187,47;  422,470;  390,680;  490,031; 0,49488
 188,07;  412,395;  382,374;  482,569; 0,52342
 188,68;  396,845;  364,576;  475,468; 0,53612
 189,28;  389,538;  359,107;  458,738; 0,51508
 189,88;  398,918;  374,931;  462,542; 0,56259
 190,48;  397,518;  377,407;  457,720; 0,60135
 191,08;  438,576;  408,082;  501,853; 0,48786
 191,68;  397,723;  366,924;  470,092; 0,52501
 192,29;  458,959;  421,445;  535,607; 0,48332
 192,89;  421,876;  388,983;  500,960; 0,53202
 193,49;  435,695;  400,717;  518,844; 0,52856
 194,09;  414,916;  379,127;  498,981; 0,52491
 194,69;  453,130;  418,284;  540,034; 0,54331
 195,29;  384,895;  354,652;  472,590; 0,59102
 195,90;  406,567;  373,513;  499,556; 0,58129
 196,50;  424,801;  388,568;  516,374; 0,54744
 197,10;  438,496;  404,543;  533,403; 0,57924
 197,70;  408,438;  372,677;  503,428; 0,56304
 198,30;  409,203;  377,380;  509,028; 0,61667
 198,90;  428,002;  393,536;  531,489; 0,60234
 199,50;  419,613;  384,133;  531,112; 0,61727
 200,11;  428,321;  391,639;  552,233; 0,64128
 200,71;  448,108;  409,695;  591,699; 0,67560
 201,31;  455,666;  406,580;  620,877; 0,64006
 201,91;  439,058;  384,883;  644,043; 0,67977
 202,51;  445,790;  384,918;  699,059; 0,71271
 203,11;  477,089;  404,412;  782,940; 0,71670
 203,71;  442,168;  359,274;  812,596; 0,73789
 204,31;  457,891;  370,261;  896,564; 0,77858
 204,91;  493,289;  388,517;  994,399; 0,76214
 205,52;  469,194;  360,153; 1028,559; 0,78745
 206,12;  502,492;  380,197; 1120,244; 0,78185
 206,72;  511,990;  382,223; 1194,932; 0,79677
 207,32;  504,220;  367,923; 1244,209; 0,80816
 207,92;  537,845;  391,240; 1337,763; 0,80998
 208,52;  558,654;  397,423; 1429,559; 0,80629
 209,12;  548,620;  377,125; 1505,057; 0,81803
 209,72;  574,421;  387,141; 1638,489; 0,82489
 210,32;  569,438;  364,232; 1737,570; 0,82559
 210,92;  598,864;  375,875; 1893,642; 0,83292
 211,53;  610,868;  373,543; 2040,929; 0,84669
 212,13;  615,403;  356,459; 2185,346; 0,84898
 212,73;  670,520;  390,919; 2373,938; 0,85079
 213,33;  634,930;  340,581; 2452,200; 0,85575
 213,93;  672,861;  365,789; 2589,309; 0,85980
 214,53;  792,629;  463,088; 2774,877; 0,84604
 215,13;  696,293;  374,299; 2706,247; 0,85987
 215,73;  657,831;  352,064; 2586,147; 0,86371
 216,33;  605,685;  330,625; 2324,925; 0,86036
 216,93;  579,728;  353,156; 1976,703; 0,85526
 217,53;  560,889;  372,175; 1751,992; 0,86402
 218,13;  596,674;  378,767; 2006,463; 0,87330
 218,73;  669,387;  351,796; 2816,591; 0,88991
 219,33;  801,462;  351,077; 3875,882; 0,89355
 219,93;  953,576;  385,258; 4878,317; 0,89795
 220,53; 1037,295;  372,999; 5634,988; 0,89879
 221,14; 1088,783;  364,044; 6196,632; 0,90568
 221,74; 1142,625;  361,626; 6684,458; 0,90826
 222,34; 1169,512;  343,687; 7080,172; 0,91155
 222,94; 1222,055;  349,855; 7501,498; 0,91379
 223,54; 1243,622;  328,743; 7905,167; 0,91810
 224,14; 1408,724;  431,994; 8480,714; 0,91595
 224,74; 1375,255;  360,118; 8926,688; 0,92628
 225,34; 1417,304;  357,229; 9339,535; 0,92805
 225,94; 1440,371;  338,030; 9767,511; 0,93217
 226,54; 1502,313;  350,738;10257,946; 0,93466
 227,14; 1564,401;  365,936;10757,968; 0,93808
 227,74; 1586,877;  350,104;11086,055; 0,93855
 228,34; 1629,848;  351,450;11592,785; 0,94415
 228,94; 1634,377;  325,353;11914,619; 0,94711
 229,54; 1710,632;  360,508;12403,170; 0,95035
 230,14; 1746,401;  346,823;12903,004; 0,95286
 230,74; 1792,807;  344,565;13441,471; 0,95633
 231,34; 1860,232;  356,340;14021,042; 0,95838
 231,94; 1903,786;  352,503;14666,870; 0,96508
 232,54; 1945,285;  334,666;15158,793; 0,96398
 233,14; 2028,198;  373,015;15710,777; 0,96692
 233,74; 2016,264;  332,580;16139,117; 0,97258
 234,34; 2041,956;  328,087;16457,922; 0,97365
 234,94; 2086,578;  350,162;16796,764; 0,97642
 235,54; 2056,676;  323,556;16830,246; 0,97883
 236,14; 2094,905;  360,183;16906,576; 0,97947
 236,74; 2054,181;  345,190;16768,246; 0,98271
 237,34; 2043,060;  356,368;16610,350; 0,98392
 237,94; 1972,486;  324,546;16318,009; 0,98700
 238,54; 1937,189;  321,561;16034,139; 0,98791
 239,14; 1901,820;  335,450;15675,290; 0,99093
 239,74; 1824,866;  303,739;15249,012; 0,99234
 240,34; 1804,474;  323,579;14915,701; 0,99359
 240,93; 1883,143;  436,979;14666,622; 0,99298
 241,53; 1754,361;  362,617;14235,317; 0,99860
 242,13; 1770,601;  406,027;13863,337; 0,99396
 242,73; 1638,497;  330,655;13429,511; 1,00068
 243,33; 1599,561;  332,617;13016,658; 1,00050
 243,93; 1616,657;  389,052;12693,787; 1,00101
 244,53; 1522,143;  338,653;12294,700; 1,00442
 245,13; 1511,819;  365,120;11965,734; 1,00503
 245,73; 1486,489;  369,150;11664,556; 1,00472
 246,33; 1440,239;  352,846;11441,659; 1,00850
 246,93; 1404,081;  336,518;11258,408; 1,00990
 247,53; 1402,561;  337,779;11272,542; 1,01155
 248,13; 1375,671;  326,586;11280,047; 1,01874
 248,73; 1415,471;  341,941;11505,646; 1,01699
 249,33; 1448,959;  347,648;11886,436; 1,02025
 249,93; 1496,968;  355,854;12402,773; 1,02355
 250,52; 1497,990;  320,376;12917,021; 1,02925
 251,12; 1601,013;  354,657;13668,991; 1,02868
 251,72; 1640,668;  332,946;14442,048; 1,03298
 252,32; 1693,516;  323,142;15252,449; 1,03720
 252,92; 1774,258;  319,625;16257,335; 1,03967
 253,52; 1882,272;  344,931;17276,217; 1,04192
 254,12; 1963,971;  346,708;18245,842; 1,04405
 254,72; 2042,803;  341,595;19301,486; 1,04708
 255,32; 2145,983;  353,358;20452,605; 1,04969
 255,92; 2208,689;  336,540;21473,709; 1,05271
 256,52; 2278,840;  341,163;22372,912; 1,05577
 257,11; 2335,343;  332,922;23223,660; 1,05810
 257,71; 2443,036;  363,648;24227,588; 1,05981
 258,31; 2498,232;  379,392;24809,926; 1,06183
 258,91; 2497,680;  337,271;25322,371; 1,06315
 259,51; 2632,615;  416,632;26053,363; 1,06330
 260,11; 2532,907;  315,246;26167,789; 1,06661
 260,71; 2610,338;  368,256;26618,178; 1,06848
 261,31; 2564,931;  328,066;26545,822; 1,06896
 261,90; 2568,163;  328,584;26815,539; 1,07287
 262,50; 2603,420;  355,006;27070,449; 1,07489
 263,10; 2603,597;  344,284;27264,180; 1,07610
 263,70; 2612,070;  328,851;27603,250; 1,07721
 264,30; 2630,427;  343,649;27807,199; 1,07953
 264,90; 2624,863;  329,243;28012,723; 1,08132
 265,50; 2638,056;  344,093;28062,455; 1,08218
 266,09; 2649,201;  362,293;28060,172; 1,08320
 266,69; 2560,269;  320,229;27609,492; 1,08574
 267,29; 2570,962;  348,330;27436,844; 1,08592
 267,89; 2512,605;  327,077;27069,955; 1,08765
 268,49; 2476,968;  332,949;26784,717; 1,09123
 269,09; 2471,768;  349,774;26583,254; 1,09211
 269,68; 2453,250;  350,298;26420,529; 1,09332
 270,28; 2407,197;  330,266;26128,607; 1,09417
 270,88; 2419,454;  344,483;26201,021; 1,09556
 271,48; 2392,349;  336,837;26052,754; 1,09728
 272,08; 2369,156;  324,767;26156,395; 1,10159
 272,68; 2422,687;  347,896;26542,258; 1,10123
 273,27; 2448,019;  337,847;27155,920; 1,10411
 273,87; 2499,122;  352,211;27713,570; 1,10532
 274,47; 2574,380;  368,810;28546,043; 1,10638
 275,07; 2583,943;  324,017;29346,957; 1,10865
 275,67; 2645,183;  342,096;30026,178; 1,11021
 276,26; 2699,202;  354,399;30667,236; 1,11152
 276,86; 2730,116;  335,265;31333,146; 1,11205
 277,46; 2760,277;  338,462;31950,135; 1,11571
 278,06; 2779,511;  320,875;32421,756; 1,11582
 278,66; 2839,571;  346,072;33043,078; 1,11770
 279,25; 2829,160;  319,012;33308,609; 1,11868
 279,85; 2891,452;  358,168;33672,867; 1,11895
 280,45; 2908,356;  348,762;34131,902; 1,12053
 281,05; 2896,092;  335,839;34245,816; 1,12204
 281,65; 2939,943;  375,927;34542,508; 1,12468
 282,24; 2947,086;  380,260;34644,141; 1,12544
 282,84; 2892,711;  328,879;34561,949; 1,12556
 283,44; 2911,180;  343,119;34750,844; 1,12705
 284,04; 2902,998;  340,057;34782,652; 1,12836
 284,63; 2897,505;  363,828;34727,520; 1,13235
 285,23; 2890,028;  328,020;34873,770; 1,12981
 285,83; 2890,900;  343,171;34850,891; 1,13176
 286,43; 2878,302;  343,839;34739,059; 1,13261
 287,02; 2911,567;  401,625;34383,414; 1,13158
 287,62; 2788,773;  329,739;33740,402; 1,13312
 288,22; 2753,122;  351,950;33117,680; 1,13500
 288,82; 2693,891;  346,985;32371,410; 1,13499
 289,41; 2640,057;  341,009;31804,914; 1,13626
 290,01; 2637,157;  364,071;31650,410; 1,13874
 290,61; 2671,698;  377,785;32036,463; 1,13992
 291,21; 2657,574;  332,162;32409,295; 1,13970
 291,80; 2680,261;  332,678;32792,180; 1,14072
 292,40; 2706,562;  345,497;32995,141; 1,14077
 293,00; 2715,958;  357,397;32992,750; 1,14104
 293,60; 2672,752;  335,086;32815,305; 1,14284
 294,19; 2663,763;  325,297;32738,178; 1,14179
 294,79; 2647,452;  331,451;32544,539; 1,14329
 295,39; 2659,233;  368,093;32224,730; 1,14315
 295,98; 2582,602;  327,771;31756,078; 1,14421
 296,58; 2534,030;  332,681;31028,328; 1,14439
 297,18; 2449,616;  315,494;30103,504; 1,14482
 297,77; 2444,810;  355,326;29573,545; 1,14561
 298,37; 2440,427;  345,247;29785,182; 1,14772
 298,97; 2513,486;  347,663;30829,982; 1,14843
 299,57; 2562,576;  317,408;31970,611; 1,14917
 300,16; 2641,999;  338,623;32820,301; 1,14927
 300,76; 2719,337;  358,279;33690,355; 1,14976
 301,36; 2758,762;  361,151;34230,387; 1,15003
 301,95; 2750,957;  316,304;34798,539; 1,15116
 302,55; 2817,797;  355,675;35232,215; 1,15122
 303,15; 2812,175;  325,198;35579,992; 1,15155
 303,74; 2856,892;  343,892;35958,609; 1,15144
 304,34; 2878,958;  342,763;36314,242; 1,15178
 304,94; 2895,041;  332,414;36606,313; 1,15091
 305,53; 2933,353;  362,732;36751,719; 1,15093
 306,13; 2914,226;  326,919;37116,277; 1,15287
 306,73; 2974,352;  367,097;37418,402; 1,15262
 307,32; 2965,877;  350,834;37456,480; 1,15196
 307,92; 2933,006;  337,315;37351,227; 1,15411
 308,52; 2954,917;  348,734;37361,039; 1,15234
 309,11; 2925,084;  342,473;37038,258; 1,15256
 309,71; 2956,140;  380,133;36921,305; 1,15184
 310,31; 2852,568;  293,010;36688,867; 1,15289
 310,90; 2864,557;  326,332;36533,406; 1,15426
 311,50; 2881,976;  335,359;36653,270; 1,15416
 312,10; 2887,669;  346,057;36714,820; 1,15562
 312,69; 2873,436;  318,119;36715,879; 1,15363
 313,29; 2895,579;  348,324;36717,684; 1,15466
 313,88; 2837,564;  312,732;36372,906; 1,15480
 314,48; 2858,196;  350,385;36023,531; 1,15305
 315,08; 2739,061;  297,472;35179,883; 1,15493
 315,67; 2756,020;  338,998;34849,176; 1,15467
 316,27; 2665,280;  303,228;34085,301; 1,15540
 316,87; 2658,383;  350,102;33402,055; 1,15591
 317,46; 2548,409;  297,755;32568,320; 1,15650
 318,06; 2552,373;  337,915;32186,400; 1,15782
 318,65; 2529,523;  323,899;31861,992; 1,15530
 319,25; 2515,927;  336,088;31660,230; 1,15745
 319,85; 2478,283;  321,136;31307,520; 1,15729
 320,44; 2477,094;  347,466;30953,359; 1,15750
 321,04; 2439,029;  326,130;30715,531; 1,15784
 321,63; 2434,365;  331,955;30592,676; 1,15816
 322,23; 2392,581;  292,786;30467,719; 1,15747
 322,83; 2420,168;  327,474;30515,471; 1,15913
 323,42; 2400,450;  332,559;30154,465; 1,15901
 324,02; 2361,522;  310,722;29795,477; 1,15767
 324,61; 2353,684;  314,178;29573,896; 1,15675
 325,21; 2361,447;  349,034;29261,375; 1,15737
 325,80; 2329,037;  329,734;29058,357; 1,15744
 326,40; 2449,797;  463,153;28794,930; 1,15415
 327,00; 2260,718;  315,383;28220,221; 1,15669
 327,59; 2244,219;  317,191;27992,975; 1,15721
 328,19; 2249,538;  341,769;27739,691; 1,15719
 328,78; 2217,378;  329,765;27395,291; 1,15650
 329,38; 2204,048;  331,314;27147,514; 1,15592
 329,97; 2183,580;  324,245;26933,363; 1,15567
 330,57; 2166,619;  329,113;26638,295; 1,15588
 331,16; 2138,347;  320,243;26262,889; 1,15440
 331,76; 2116,918;  321,632;25970,570; 1,15494
 332,36; 2119,445;  341,464;25631,371; 1,15302
 332,95; 2082,512;  325,077;25301,270; 1,15265
 333,55; 2103,300;  355,424;25195,656; 1,15265
 334,14; 2061,861;  314,962;25133,727; 1,15251
 334,74; 2090,174;  323,212;25246,543; 1,14938
 335,33; 2100,718;  310,558;25461,807; 1,14767
 335,93; 2135,751;  321,198;25871,047; 1,14862
 336,52; 2149,493;  311,280;26125,580; 1,14746
 337,12; 2218,098;  358,353;26425,563; 1,14664
 337,71; 2215,296;  331,151;26636,682; 1,14493
 338,31; 2255,143;  349,798;26886,191; 1,14387
 338,90; 2276,752;  359,218;27016,051; 1,14307
 339,50; 2271,732;  332,774;27194,943; 1,14157
 340,09; 2275,689;  330,714;27193,990; 1,14025
 340,69; 2268,163;  314,062;27191,070; 1,13843
 341,28; 2291,116;  334,554;27114,424; 1,13631
 341,88; 2252,504;  327,602;26736,094; 1,13733
 342,47; 2269,947;  337,203;26654,141; 1,13406
 343,07; 2297,284;  329,782;27111,371; 1,13392
 343,66; 2318,581;  319,164;27382,406; 1,13148
 344,26; 2381,795;  315,472;28215,020; 1,13040
 344,85; 2424,627;  321,748;28705,811; 1,13026
 345,45; 2477,618;  319,328;29186,760; 1,12630
 346,04; 2561,766;  363,798;29553,707; 1,12321
 346,64; 2543,049;  329,933;29681,266; 1,12262
 347,23; 2548,020;  312,849;29850,771; 1,12107
 347,83; 2613,136;  340,044;30171,982; 1,11806
 348,42; 2684,691;  379,754;30248,139; 1,11255
 349,01; 2629,116;  331,950;30043,031; 1,11173
 349,61; 2585,390;  289,497;29912,385; 1,11068
 350,20; 2663,126;  338,670;30007,291; 1,10598
 350,80; 2653,175;  315,180;30000,828; 1,10370
 351,39; 2665,878;  323,399;29855,340; 1,10062
 351,99; 2643,418;  307,432;29664,795; 1,09925
 352,58; 2665,998;  322,275;29502,271; 1,09518
 353,18; 2671,484;  350,621;29067,752; 1,09249
 353,77; 2621,331;  319,401;28610,082; 1,08955
 354,36; 2665,991;  363,933;28394,861; 1,08552
 354,96; 2606,258;  323,516;28010,125; 1,08381
 355,55; 2602,293;  312,437;27860,438; 1,08028
 356,15; 2618,594;  330,544;27708,092; 1,07793
 356,74; 2619,986;  314,084;27694,348; 1,07460
 357,34; 2651,142;  325,215;27665,398; 1,07021
 357,93; 2689,670;  330,943;27768,234; 1,06566
 358,52; 2681,228;  313,833;27667,830; 1,06275
 359,12; 2708,323;  329,189;27592,291; 1,05916
 359,71; 2708,873;  324,720;27354,119; 1,05450
 360,31; 2705,095;  319,603;27162,744; 1,05126
 360,90; 2680,577;  308,969;26681,320; 1,04611
 361,49; 2707,135;  327,363;26486,975; 1,04110
 362,09; 2691,216;  334,750;26122,840; 1,03916
 362,68; 2666,003;  327,317;25547,441; 1,03278
 363,28; 2599,510;  314,169;24740,945; 1,02892
 363,87; 2538,154;  303,751;23894,488; 1,02358
 364,46; 2528,083;  325,776;23378,375; 1,01984
 365,06; 2540,131;  347,966;23117,025; 1,01647
 365,65; 2538,153;  331,132;23129,883; 1,01410
 366,24; 2574,876;  317,893;23358,945; 1,00897
 366,84; 2620,520;  351,946;23333,225; 1,00562
 367,43; 2561,110;  306,425;22885,377; 1,00062
 368,03; 2569,351;  318,536;22545,277; 0,99454
 368,62; 2517,040;  305,168;21980,707; 0,99121
 369,21; 2526,008;  326,363;21691,662; 0,98736
 369,81; 2491,977;  320,450;21166,752; 0,98226
 370,40; 2464,352;  333,881;20593,443; 0,97815
 370,99; 2428,383;  303,137;20252,689; 0,97252
 371,59; 2455,510;  352,136;19950,072; 0,96929
 372,18; 2374,929;  288,455;19588,654; 0,96615
 372,77; 2391,982;  324,144;19257,648; 0,96171
 373,37; 2353,677;  311,511;18901,502; 0,95919
 373,96; 2384,141;  338,941;18713,932; 0,95349
 374,55; 2350,602;  304,986;18537,557; 0,95002
 375,15; 2412,377;  333,459;18660,934; 0,94527
 375,74; 2403,675;  303,049;18655,016; 0,94133
 376,33; 2421,529;  302,584;18703,863; 0,93873
 376,93; 2495,940;  329,167;18992,068; 0,93517
 377,52; 2569,456;  320,726;19512,434; 0,93118
 378,11; 2596,862;  293,780;19794,580; 0,92774
 378,71; 2707,733;  313,230;20435,998; 0,92447
 379,30; 2794,683;  313,851;20944,291; 0,91991
 379,89; 2810,863;  317,272;20801,727; 0,91460
 380,49; 2841,510;  345,041;20700,744; 0,91136
 381,08; 2828,117;  310,804;20625,727; 0,90688
 381,67; 2863,045;  345,783;20551,613; 0,90455
 382,26; 2882,913;  319,894;20787,807; 0,90232
 382,86; 2938,645;  312,601;20923,523; 0,89480
 383,45; 2908,411;  307,675;20545,236; 0,89106
 384,04; 3001,395;  406,782;20370,605; 0,88617
 384,64; 2927,456;  328,606;20173,217; 0,88286
 385,23; 2908,818;  316,863;20077,385; 0,88217
 385,82; 2978,271;  328,841;20318,053; 0,87764
 386,41; 3085,244;  326,346;20979,469; 0,87425
 387,01; 3277,609;  356,374;22083,871; 0,87144
 387,60; 3389,011;  334,946;22828,563; 0,86718
 388,19; 3540,367;  355,375;23536,895; 0,86203
 388,78; 3578,729;  339,551;23658,555; 0,85728
 389,38; 3497,246;  322,049;23018,770; 0,85419
 389,97; 3488,269;  305,389;22962,205; 0,85238
 390,56; 3609,394;  336,349;23379,697; 0,84759
 391,15; 3662,987;  305,641;23809,744; 0,84515
 391,75; 3821,723;  339,052;24484,654; 0,84093
 392,34; 4022,234;  332,839;25726,035; 0,83776
 392,93; 4168,694;  355,482;26294,539; 0,83266
 393,52; 4069,029;  309,316;25522,092; 0,82647
 394,12; 3950,990;  334,016;24551,967; 0,82579
 394,71; 3932,138;  288,556;24456,102; 0,82170
 395,30; 3938,603;  289,076;24281,830; 0,81784
 395,89; 4007,686;  349,207;24286,957; 0,81578
 396,49; 4080,361;  332,882;24648,262; 0,81214
 397,08; 4180,912;  317,254;25247,852; 0,80973
 397,67; 4417,046;  335,400;26447,506; 0,80601
 398,26; 4653,077;  335,033;27655,400; 0,80120
 398,85; 4656,963;  318,964;27441,340; 0,79604
 399,45; 4489,288;  314,448;26241,176; 0,79311
 400,04; 4447,962;  358,283;25589,816; 0,79025
 400,63; 4371,701;  307,540;25218,330; 0,78742
 401,22; 4428,378;  320,670;25276,740; 0,78358
 401,81; 4345,709;  309,772;24606,875; 0,77961
 402,41; 4429,226;  417,593;24442,350; 0,77734
 403,00; 4349,124;  318,910;24249,396; 0,77362
 403,59; 4383,209;  350,205;24188,498; 0,77165
 404,18; 4363,828;  314,737;24004,834; 0,76721
 404,77; 4400,477;  320,921;24121,902; 0,76598
 405,36; 4433,039;  300,147;24137,236; 0,76100
 405,96; 4311,196;  310,058;23220,281; 0,75785
 406,55; 4123,983;  302,865;22050,420; 0,75522
 407,14; 4071,034;  308,178;21666,172; 0,75404
 407,73; 4135,239;  340,507;21753,471; 0,75150
 408,32; 4237,155;  310,319;22386,865; 0,74989
 408,91; 4341,851;  326,255;22630,313; 0,74463
 409,51; 4293,207;  328,485;22229,078; 0,74224
 410,10; 4174,630;  282,990;21608,207; 0,73876
 410,69; 4071,910;  303,361;20784,264; 0,73517
 411,28; 3991,385;  307,734;20263,029; 0,73378
 411,87; 3963,640;  321,629;19937,164; 0,73126
 412,46; 3971,996;  314,398;19937,150; 0,72956
 413,05; 3984,059;  342,649;19703,902; 0,72566
 413,64; 3851,679;  295,160;19076,104; 0,72269
 414,24; 3729,091;  307,466;18259,146; 0,71987
 414,83; 3705,607;  343,144;17909,514; 0,71802
 415,42; 3658,380;  333,481;17641,084; 0,71646
 416,01; 3700,680;  314,763;17855,305; 0,71437
 416,60; 3780,134;  356,694;17976,219; 0,71153
 417,19; 3761,004;  314,747;17938,844; 0,70876
 417,78; 3829,611;  357,811;18033,521; 0,70682
 418,37; 3829,790;  329,286;18057,180; 0,70453
 418,96; 3905,332;  332,481;18329,111; 0,70218
 419,56; 3955,643;  331,036;18497,662; 0,70001
 420,15; 4012,301;  310,794;18813,955; 0,69887
 420,74; 4182,293;  320,123;19542,234; 0,69697
 421,33; 4402,142;  306,377;20561,982; 0,69421
 421,92; 4482,006;  340,829;20671,750; 0,69103
 422,51; 4251,697;  316,919;19414,900; 0,68607
 423,10; 4089,463;  330,832;18588,023; 0,68640
 423,69; 3951,808;  325,424;17824,646; 0,68354
 424,28; 3835,135;  309,095;17336,279; 0,68386
 424,87; 3859,686;  326,887;17276,467; 0,68104
 425,46; 3804,344;  351,671;16758,803; 0,67688
 426,05; 3634,498;  316,481;16081,728; 0,67682
 426,64; 3600,602;  305,841;15978,011; 0,67731
 427,24; 3818,633;  344,035;16804,531; 0,67554
 427,83; 3770,870;  274,800;16670,225; 0,67114
 428,42; 3824,948;  342,896;16661,053; 0,67084
 429,01; 3923,595;  285,055;17347,168; 0,67111
 429,60; 4338,592;  339,989;19104,686; 0,67143
 430,19; 4502,991;  332,868;19634,428; 0,66544
 430,78; 4313,194;  342,418;18565,756; 0,66175
 431,37; 3997,865;  372,486;16839,295; 0,65726
 431,96; 3678,677;  339,941;15553,188; 0,65864
 432,55; 3569,207;  321,509;15163,475; 0,65992
 433,14; 3725,230;  309,542;16044,614; 0,66339
 433,73; 4144,997;  343,113;17603,203; 0,65704
 434,32; 3937,552;  347,339;16363,508; 0,64944
 434,91; 3647,033;  291,776;15422,009; 0,65412
 435,50; 3725,011;  347,692;15482,210; 0,65140
 436,09; 3748,270;  332,149;15637,316; 0,65130
 436,68; 3786,868;  334,301;15719,837; 0,64897
 437,27; 3648,289;  327,328;15035,827; 0,64630
 437,86; 3636,993;  315,031;15078,494; 0,64779
 438,45; 3750,596;  331,853;15473,938; 0,64632
 439,04; 3736,476;  325,057;15358,031; 0,64411
 439,63; 3681,743;  318,390;15078,922; 0,64233
 440,22; 3716,203;  348,409;15141,058; 0,64270
 440,81; 4048,154;  337,444;16730,488; 0,64520
 441,40; 4470,712;  339,683;18374,789; 0,64006
 441,99; 4319,164;  321,980;17582,588; 0,63530
 442,58; 4203,138;  323,034;17141,949; 0,63695
 443,17; 4325,347;  311,104;17734,111; 0,63752
 443,76; 4415,288;  331,320;17910,510; 0,63392
 444,35; 4313,437;  328,073;17435,666; 0,63272
 444,94; 4330,526;  355,709;17382,781; 0,63182
 445,53; 4217,645;  329,913;16956,162; 0,63110
 446,12; 4262,452;  336,521;17131,809; 0,63124
 446,71; 4309,104;  352,864;17180,354; 0,62874
 447,29; 4171,652;  343,182;16581,564; 0,62752
 447,88; 4075,079;  332,495;16187,663; 0,62700
 448,47; 4100,670;  338,368;16266,140; 0,62670
 449,06; 4156,188;  314,734;16558,213; 0,62618
 449,65; 4219,885;  334,777;16710,730; 0,62480
 450,24; 4224,846;  342,382;16661,139; 0,62358
 450,83; 4146,018;  338,601;16286,759; 0,62208
 451,42; 4143,470;  328,151;16318,315; 0,62232
 452,01; 4186,244;  326,842;16439,650; 0,62065
 452,60; 4153,250;  346,208;16128,940; 0,61759
 453,19; 4009,656;  332,449;15558,139; 0,61706
 453,78; 3925,987;  310,454;15284,736; 0,61717
 454,37; 3996,624;  360,490;15422,726; 0,61725
 454,95; 4131,854;  348,093;16048,419; 0,61798
 455,54; 4170,541;  318,593;16136,688; 0,61347
 456,13; 4036,861;  346,680;15487,373; 0,61310
 456,72; 4048,129;  332,567;15641,142; 0,61491
 457,31; 4244,944;  345,328;16400,982; 0,61461
 457,90; 4369,664;  349,150;16855,381; 0,61337
 458,49; 4418,819;  336,551;17033,602; 0,61174
 459,08; 4418,066;  328,696;17043,375; 0,61144
 459,67; 4497,249;  364,575;17237,633; 0,61096
 460,25; 4399,871;  348,060;16781,980; 0,60809
 460,84; 4401,699;  341,515;16861,957; 0,60948
 461,43; 4229,781;  328,759;16023,012; 0,60456
 462,02; 3905,114;  318,689;14794,191; 0,60597
 462,61; 3870,269;  308,528;14785,124; 0,60900
 463,20; 4153,567;  345,430;15756,023; 0,60711
 463,79; 4347,654;  323,114;16559,641; 0,60578
 464,37; 4489,612;  351,902;17023,367; 0,60521
 464,96; 4628,067;  327,519;17646,559; 0,60500
 465,55; 4771,309;  309,586;18158,438; 0,60211
 466,14; 4541,173;  330,745;17039,525; 0,59862
 466,73; 4030,777;  325,655;15032,316; 0,59871
 467,32; 3895,313;  337,854;14508,477; 0,60025
 467,90; 3871,381;  323,250;14414,938; 0,59896
 468,49; 3756,491;  321,325;13916,073; 0,59742
 469,08; 3565,399;  321,166;13136,986; 0,59663
 469,67; 3440,578;  328,626;12695,922; 0,59924
 470,26; 3407,418;  313,395;12559,830; 0,59749
 470,85; 3377,828;  299,552;12480,969; 0,59739
 471,43; 3421,011;  321,005;12602,268; 0,59788
 472,02; 3494,600;  316,632;12906,532; 0,59787
 472,61; 3625,339;  301,118;13437,555; 0,59679
 473,20; 3829,972;  358,280;14023,160; 0,59506
 473,79; 3791,090;  346,202;13830,846; 0,59266
 474,37; 3749,096;  338,464;13780,721; 0,59564
 474,96; 3953,612;  330,287;14583,107; 0,59479
 475,55; 3924,366;  314,761;14403,431; 0,59141
 476,14; 3746,452;  311,537;13683,688; 0,59029
 476,72; 3668,535;  331,043;13303,588; 0,58960
 477,31; 3562,358;  316,057;12985,107; 0,59136
 477,90; 3751,969;  318,904;13738,083; 0,59204
 478,49; 3745,752;  318,129;13549,364; 0,58661
 479,08; 3658,609;  332,413;13243,997; 0,58903
 479,66; 3796,717;  310,728;13875,031; 0,59007
 480,25; 3900,150;  311,043;14219,396; 0,58829
 480,84; 3790,597;  308,632;13730,607; 0,58599
 481,43; 3905,027;  347,375;14142,333; 0,58856
 482,01; 3855,010;  292,309;13942,782; 0,58337
 482,60; 3672,066;  346,524;13098,231; 0,58371
 483,19; 3612,330;  310,527;13048,366; 0,58634
 483,78; 3775,794;  322,650;13672,611; 0,58727
 484,36; 4059,273;  311,520;14891,580; 0,58999
 484,95; 4841,718;  344,823;18579,404; 0,60798
 485,54;10565,670;  328,117;40502,590; 0,59375
 486,12;11361,316;  323,706;40410,520; 0,56013
 486,71; 5477,568;  310,591;18751,363; 0,55254
 487,30; 4170,975;  335,957;14819,509; 0,57711
 487,89; 3569,013;  325,748;12514,656; 0,57498
 488,47; 3277,686;  295,591;11603,951; 0,57888
 489,06; 3293,429;  316,463;11575,978; 0,57775
 489,65; 3248,638;  355,341;11266,909; 0,57649
 490,23; 3157,927;  361,139;10942,286; 0,57787
 490,82; 3117,149;  303,619;10937,221; 0,57743
 491,41; 3118,596;  326,297;10870,940; 0,57707
 492,00; 3069,411;  345,532;10651,551; 0,57790
 492,58; 3061,048;  324,445;10621,289; 0,57549
 493,17; 3082,351;  333,966;10700,254; 0,57655
 493,76; 3145,401;  398,260;10736,825; 0,57558
 494,34; 3098,144;  350,544;10645,819; 0,57368
 494,93; 2978,937;  343,493;10161,253; 0,57116
 495,52; 2937,915;  328,559;10177,805; 0,57687
 496,10; 3257,331;  317,407;11400,070; 0,57631
 496,69; 3230,449;  352,159;10928,375; 0,56520
 497,28; 2870,588;  393,059; 9517,639; 0,56619
 497,86; 2734,836;  324,829; 9317,378; 0,57186
 498,45; 2828,401;  312,333; 9695,438; 0,57162
 499,04; 2973,612;  350,916;10122,075; 0,57120
 499,62; 3040,580;  376,735;10220,077; 0,56763
 500,21; 2865,863;  346,371; 9636,579; 0,56671
 500,80; 2830,202;  318,063; 9697,120; 0,57212
 501,38; 2967,410;  328,892;10114,727; 0,56924
 501,97; 2960,539;  333,129;10052,751; 0,56812
 502,55; 2937,592;  323,333; 9987,355; 0,56781
 503,14; 2929,394;  322,978; 9953,820; 0,56762
 503,73; 2833,377;  313,898; 9580,801; 0,56562
 504,31; 2702,818;  311,573; 9120,442; 0,56630
 504,90; 2765,333;  349,119; 9251,674; 0,56638
 505,49; 2723,466;  320,179; 9180,311; 0,56663
 506,07; 2804,333;  335,290; 9422,761; 0,56591
 506,66; 2717,795;  302,735; 9120,313; 0,56242
 507,24; 2555,956;  313,190; 8517,741; 0,56327
 507,83; 2604,141;  303,041; 8787,331; 0,56668
 508,42; 2619,283;  289,609; 8758,297; 0,56052
 509,00; 2561,002;  338,337; 8399,396; 0,55952
 509,59; 2520,842;  336,317; 8273,204; 0,56029
 510,17; 2530,919;  327,608; 8317,195; 0,55945
 510,76; 2500,587;  344,803; 8158,958; 0,55928
 511,34; 2431,632;  312,100; 7965,839; 0,55763
 511,93; 2345,596;  325,068; 7615,515; 0,55729
 512,52; 2329,478;  324,009; 7525,500; 0,55521
 513,10; 2313,433;  316,527; 7511,817; 0,55669
 513,69; 2293,855;  334,197; 7359,125; 0,55446
 514,27; 2240,521;  319,883; 7190,599; 0,55356
 514,86; 2173,303;  350,522; 6843,645; 0,55172
 515,44; 2109,905;  304,801; 6795,849; 0,55581
 516,03; 2210,261;  331,216; 7055,729; 0,55372
 516,61; 2234,404;  351,743; 7047,037; 0,55100
 517,20; 2121,662;  305,505; 6757,669; 0,55055
 517,79; 2096,829;  351,295; 6549,768; 0,55036
 518,37; 2102,346;  328,449; 6661,492; 0,55268
 518,96; 2307,052;  437,029; 7058,706; 0,54912
 519,54; 2124,234;  296,059; 6743,821; 0,54739
 520,13; 2051,450;  345,298; 6327,904; 0,54487
 520,71; 2009,996;  307,564; 6347,159; 0,54994
 521,30; 2096,155;  323,702; 6553,108; 0,54587
 521,88; 2041,535;  313,611; 6381,205; 0,54549
 522,47; 2109,656;  339,170; 6578,267; 0,54703
 523,05; 2143,280;  331,082; 6718,754; 0,54714
 523,64; 2223,537;  332,276; 7008,169; 0,54776
 524,22; 2261,881;  328,083; 7126,842; 0,54602
 524,81; 2252,484;  324,383; 7085,186; 0,54487
 525,39; 2302,629;  333,523; 7270,596; 0,54691
 525,98; 2365,588;  319,088; 7529,497; 0,54695
 526,56; 2459,198;  331,801; 7810,998; 0,54601
 527,15; 2517,717;  326,330; 8029,121; 0,54593
 527,73; 2577,087;  358,773; 8150,000; 0,54558
 528,32; 2688,422;  327,102; 8700,708; 0,54976
 528,90; 2860,603;  319,242; 9211,103; 0,54393
 529,49; 2837,077;  326,499; 9084,329; 0,54262
 530,07; 2812,917;  319,326; 9020,797; 0,54277
 530,66; 2874,388;  362,735; 9147,239; 0,54376
 531,24; 2886,323;  355,365; 9209,779; 0,54387
 531,82; 2902,008;  333,281; 9279,736; 0,54193
 532,41; 2929,812;  335,565; 9393,586; 0,54302
 532,99; 3108,602;  342,162; 9986,318; 0,54234
 533,58; 3215,234;  372,468;10193,546; 0,53842
 534,16; 3124,103;  332,112; 9991,844; 0,53905
 534,75; 3175,299;  369,301;10039,107; 0,53733
 535,33; 3075,898;  325,694; 9797,634; 0,53707
 535,92; 2968,344;  313,586; 9428,243; 0,53572
 536,50; 2904,500;  342,084; 9137,723; 0,53562
 537,08; 2899,361;  307,677; 9259,770; 0,53834
 537,67; 3123,689;  359,655; 9875,081; 0,53688
 538,25; 3214,259;  343,448;10185,392; 0,53508
 538,84; 3288,214;  366,201;10378,470; 0,53485
 539,42; 3283,591;  338,703;10406,311; 0,53386
 540,00; 3258,823;  346,201;10308,475; 0,53407
 540,59; 3360,881;  357,330;10646,413; 0,53474
 541,17; 3455,195;  357,702;10925,381; 0,53297
 541,76; 3567,954;  406,348;11157,524; 0,53155
 542,34; 3528,104;  349,575;11150,021; 0,53122
 542,92; 3540,337;  323,025;11231,487; 0,53027
 543,51; 3624,232;  340,954;11483,552; 0,53068
 544,09; 3725,965;  342,869;11768,570; 0,52857
 544,68; 3750,683;  338,745;11846,358; 0,52798
 545,26; 3658,013;  322,037;11528,122; 0,52623
 545,84; 3607,144;  345,898;11355,218; 0,52838
 546,43; 3689,684;  352,237;11633,034; 0,52893
 547,01; 3890,123;  341,794;12328,290; 0,52867
 547,59; 4180,046;  333,287;13295,950; 0,52760
 548,18; 4265,598;  319,020;13477,768; 0,52299
 548,76; 4130,107;  343,821;12956,009; 0,52258
 549,34; 4115,157;  347,592;12959,278; 0,52471
 549,93; 4229,515;  331,908;13396,520; 0,52530
 550,51; 4328,375;  341,259;13655,715; 0,52366
 551,09; 4431,574;  332,512;14064,419; 0,52505
 551,68; 4803,595;  325,956;15313,372; 0,52468
 552,26; 5056,662;  319,078;16054,329; 0,52132
 552,84; 5079,870;  330,176;16126,793; 0,52190
 553,43; 5226,514;  330,518;16609,824; 0,52179
 554,01; 5312,482;  327,864;16846,107; 0,52033
 554,59; 5444,641;  334,176;17304,756; 0,52124
 555,18; 5689,781;  315,864;18210,252; 0,52243
 555,76; 5876,665;  296,268;18770,006; 0,51989
 556,34; 5919,213;  334,064;18803,180; 0,51941
 556,93; 5986,589;  332,732;19037,109; 0,51960
 557,51; 6143,329;  379,596;19407,863; 0,51870
 558,09; 6173,332;  325,126;19653,461; 0,51917
 558,68; 6148,870;  310,223;19578,646; 0,51853
 559,26; 6282,786;  305,494;20079,125; 0,51958
 559,84; 6580,214;  338,257;20928,541; 0,51834
 560,42; 6811,983;  323,273;21632,443; 0,51641
 561,01; 6888,834;  329,274;21801,416; 0,51500
 561,59; 6884,540;  343,752;21761,336; 0,51514
 562,17; 6885,184;  320,015;21822,777; 0,51525
 562,75; 6997,355;  303,459;22212,414; 0,51494
 563,34; 7249,105;  350,306;22840,463; 0,51322
 563,92; 7380,508;  334,385;23309,400; 0,51331
 564,50; 7549,054;  347,287;23816,904; 0,51307
 565,08; 7609,340;  332,575;23990,188; 0,51203
 565,67; 7739,520;  315,524;24407,879; 0,51124
 566,25; 7938,141;  324,361;25043,109; 0,51143
 566,83; 8222,759;  310,043;26002,693; 0,51148
 567,41; 8525,576;  307,694;26864,346; 0,50941
 568,00; 8747,925;  318,602;27578,098; 0,50973
 568,58; 9108,069;  330,325;28691,645; 0,50934
 569,16; 9591,363;  308,204;30254,402; 0,50865
 569,74;10114,248;  323,078;31694,836; 0,50570
 570,33;10287,928;  307,979;32238,350; 0,50508
 570,91;10653,948;  335,354;33287,762; 0,50427
 571,49;11001,121;  365,136;34196,570; 0,50254
 572,07;10814,479;  409,648;33379,770; 0,50089
 572,65;10617,775;  325,620;33166,969; 0,50391
 573,24;11317,354;  314,094;35402,422; 0,50364
 573,82;11935,133;  345,978;36940,250; 0,49936
 574,40;12012,732;  307,643;37206,457; 0,49864
 574,98;11772,892;  325,149;36321,063; 0,49753
 575,56;11414,853;  342,797;35305,594; 0,49938
 576,15;11713,250;  331,283;36444,941; 0,50145
 576,73;12355,251;  345,304;38271,254; 0,49940
 577,31;13156,485;  332,864;40730,934; 0,49835
 577,89;13576,982;  434,001;41372,285; 0,49344
 578,47;12451,557;  342,360;38100,273; 0,49389
 579,05;11948,209;  335,571;36961,430; 0,49886
 579,64;12315,827;  327,978;38149,742; 0,49900
 580,22;12616,655;  315,740;38993,223; 0,49752
 580,80;13379,778;  321,439;41491,742; 0,49870
 581,38;14577,966;  336,699;44793,004; 0,49438
 581,96;14251,100;  345,000;43209,230; 0,48889
 582,54;13042,216;  320,162;39879,230; 0,49269
 583,12;12285,620;  334,679;37817,656; 0,49643
 583,71;12361,542;  348,958;38114,020; 0,49745
 584,29;12936,301;  366,913;39877,848; 0,49740
 584,87;13448,205;  312,704;41334,879; 0,49457
 585,45;13557,901;  339,094;41426,105; 0,49251
 586,03;13112,052;  329,060;40190,816; 0,49392
 586,61;13104,778;  324,046;40341,074; 0,49569
 587,19;13464,634;  343,024;41367,223; 0,49505
 587,77;13282,496;  290,143;40869,516; 0,49462
 588,35;13118,831;  318,539;40352,125; 0,49520
 588,94;13029,726;  349,931;40041,684; 0,49559
 589,52;13021,373;  300,891;40129,879; 0,49570
 590,10;13050,178;  301,820;40146,281; 0,49491
 590,68;13125,124;  373,949;40275,145; 0,49544
 591,26;13138,003;  317,385;40355,266; 0,49456
 591,84;13184,826;  322,392;40498,332; 0,49464
 592,42;13506,597;  344,590;41463,688; 0,49472
 593,00;13759,810;  360,912;42085,039; 0,49332
 593,58;13572,801;  342,212;41580,227; 0,49372
 594,16;13430,881;  344,508;41272,152; 0,49520
 594,74;13564,454;  355,773;41625,711; 0,49477
 595,32;13531,365;  341,253;41529,727; 0,49453
 595,90;13478,193;  325,978;41413,207; 0,49471
 596,49;13351,578;  296,176;41045,473; 0,49433
 597,07;13444,599;  292,327;41379,789; 0,49471
 597,65;13435,865;  300,479;41331,523; 0,49467
 598,23;13501,850;  299,564;41577,086; 0,49506
 598,81;13613,952;  308,069;41853,652; 0,49448
 599,39;13641,208;  320,103;41912,695; 0,49448
 599,97;13590,715;  322,623;41645,785; 0,49339
 600,55;13642,359;  314,854;41803,969; 0,49319
 601,13;13593,905;  328,370;41685,090; 0,49382
 601,71;13540,595;  319,533;41543,684; 0,49389
 602,29;13656,866;  325,929;41870,480; 0,49365
 602,87;13646,830;  312,996;41923,664; 0,49425
 603,45;13614,401;  325,775;41771,234; 0,49400
 604,03;13554,966;  321,136;41569,832; 0,49372
 604,61;13621,602;  356,322;41745,887; 0,49417
 605,19;13613,912;  323,982;41766,016; 0,49392
 605,77;13678,864;  326,862;41873,930; 0,49299
 606,35;13662,432;  319,249;41888,105; 0,49351
 606,93;13637,619;  313,952;41878,719; 0,49410
 607,51;13584,026;  324,376;41718,586; 0,49441
 608,09;13603,931;  311,962;41753,996; 0,49385
 608,67;13526,718;  322,717;41587,102; 0,49487
 609,25;13523,913;  331,263;41568,695; 0,49496
 609,83;13518,528;  317,536;41591,645; 0,49507
 610,41;13467,349;  303,102;41406,539; 0,49448
 610,99;13481,438;  329,845;41430,703; 0,49487
 611,57;13439,609;  296,668;41312,484; 0,49426
 612,14;13430,596;  327,389;41321,168; 0,49534
 612,72;13358,616;  311,352;41132,063; 0,49536
 613,30;13408,136;  338,004;41230,605; 0,49536
 613,88;13336,294;  304,866;41069,121; 0,49529
 614,46;13217,353;  317,355;40657,109; 0,49514
 615,04;13370,605;  390,636;40986,840; 0,49521
 615,62;13162,274;  316,223;40512,039; 0,49541
 616,20;13120,288;  328,045;40450,391; 0,49644
 616,78;13126,752;  340,163;40455,777; 0,49656
 617,36;13063,628;  313,250;40316,891; 0,49658
 617,94;12968,943;  298,413;39993,602; 0,49594
 618,52;12914,001;  316,710;39775,777; 0,49587
 619,10;12885,530;  310,413;39729,207; 0,49619
 619,67;12843,271;  336,620;39548,621; 0,49628
 620,25;12814,908;  294,345;39558,551; 0,49637
 620,83;12730,026;  342,349;39293,797; 0,49753
 621,41;12749,946;  341,967;39334,578; 0,49728
 621,99;12775,592;  334,842;39444,766; 0,49744
 622,57;12699,587;  316,482;39241,633; 0,49740
 623,15;12813,021;  317,151;39589,309; 0,49732
 623,73;12792,178;  297,936;39630,352; 0,49804
 624,30;12830,996;  319,229;39719,484; 0,49818
 624,88;12743,392;  308,892;39418,344; 0,49765
 625,46;12727,337;  287,449;39491,773; 0,49852
 626,04;12870,029;  338,445;39816,785; 0,49835
 626,62;12842,549;  319,101;39770,898; 0,49834
 627,20;12904,419;  347,512;39916,352; 0,49847
 627,78;12921,017;  323,829;39982,750; 0,49807
 628,35;12929,239;  369,525;39958,555; 0,49860
 628,93;12932,878;  298,776;40187,492; 0,49931
 629,51;13026,116;  340,636;40457,410; 0,50002
 630,09;12956,499;  306,174;40318,043; 0,50009
 630,67;13076,133;  335,580;40651,246; 0,50029
 631,25;13100,213;  334,271;40764,391; 0,50065
 631,82;13187,786;  331,582;41041,664; 0,50059
 632,40;13179,969;  332,740;41070,559; 0,50119
 632,98;13202,994;  322,858;41180,293; 0,50135
 633,56;13288,313;  336,585;41407,766; 0,50121
 634,14;13364,537;  328,623;41658,645; 0,50112
 634,71;13423,888;  329,821;41828,160; 0,50096
 635,29;13412,245;  309,582;41882,195; 0,50145
 635,87;13456,753;  319,399;41937,875; 0,50078
 636,45;13532,266;  345,444;42147,574; 0,50106
 637,03;13577,747;  324,225;42377,664; 0,50147
 637,60;13635,513;  387,676;42442,207; 0,50167
 638,18;13599,608;  322,112;42542,125; 0,50240
 638,76;13620,631;  317,712;42688,344; 0,50312
 639,34;13734,877;  355,373;42919,641; 0,50261
 639,91;13715,549;  342,463;42960,344; 0,50336
 640,49;13718,104;  332,583;42977,680; 0,50323
 641,07;13727,343;  317,446;43053,051; 0,50336
 641,65;13758,772;  323,705;43054,727; 0,50250
 642,22;13724,461;  330,095;42969,789; 0,50289
 642,80;13758,250;  309,574;43106,195; 0,50273
 643,38;13756,169;  294,997;43093,547; 0,50235
 643,96;13810,695;  334,317;43347,492; 0,50403
 644,53;13774,461;  314,966;43184,020; 0,50312
 645,11;13814,326;  333,772;43354,309; 0,50397
 645,69;13859,898;  352,438;43445,477; 0,50383
 646,27;13813,388;  329,755;43364,070; 0,50401
 646,84;13882,566;  343,851;43576,367; 0,50423
 647,42;13791,589;  325,864;43251,027; 0,50348
 648,00;13822,975;  283,483;43358,266; 0,50262
 648,57;13897,230;  312,573;43627,871; 0,50359
 649,15;13891,270;  311,762;43661,477; 0,50410
 649,73;13933,595;  339,455;43789,941; 0,50464
 650,31;13909,620;  310,378;43735,688; 0,50423
 650,88;13944,930;  332,071;43831,801; 0,50454
 651,46;13951,915;  327,577;43935,359; 0,50525
 652,04;13911,348;  292,353;43873,652; 0,50516
 652,61;14014,916;  318,683;44179,199; 0,50547
 653,19;14089,865;  340,782;44350,820; 0,50528
 653,77;14082,008;  308,318;44411,324; 0,50542
 654,34;14142,840;  320,458;44727,211; 0,50687
 654,92;14627,148;  321,574;46571,719; 0,50961
 655,50;18289,900;  313,950;57444,570; 0,50218
 656,07;19811,008;  307,380;60268,895; 0,48776
 656,65;16199,126;  299,769;49930,965; 0,49438
 657,23;14733,932;  460,825;46215,434; 0,50592
 657,80;14506,587;  330,195;45891,578; 0,50703
 658,38;14510,923;  332,308;45956,336; 0,50756
 658,95;14618,155;  329,914;46250,957; 0,50703
 659,53;14622,511;  305,723;46266,742; 0,50654
 660,11;14701,303;  295,209;46640,125; 0,50746
 660,68;14930,396;  364,466;47165,227; 0,50691
 661,26;15041,281;  315,738;47669,266; 0,50728
 661,84;15122,767;  339,481;47928,133; 0,50773
 662,41;15272,649;  304,854;48444,648; 0,50735
 662,99;15376,581;  310,867;48809,129; 0,50774
 663,56;15487,394;  300,030;49197,164; 0,50780
 664,14;15652,782;  305,529;49640,113; 0,50712
 664,72;15739,605;  312,342;49911,949; 0,50719
 665,29;15945,374;  316,532;50538,797; 0,50697
 665,87;16059,646;  316,858;50927,691; 0,50716
 666,44;16174,912;  320,804;51239,988; 0,50674
 667,02;16253,157;  316,233;51415,176; 0,50601
 667,59;16407,346;  297,903;51851,457; 0,50518
 668,17;16516,652;  311,462;52243,398; 0,50578
 668,75;16603,742;  326,259;52469,746; 0,50561
 669,32;16599,541;  328,418;52486,012; 0,50590
 669,90;16633,916;  306,151;52673,059; 0,50613
 670,47;16661,875;  283,951;52748,133; 0,50560
 671,05;16674,027;  315,813;52759,055; 0,50595
 671,62;16656,510;  293,350;52670,484; 0,50527
 672,20;16703,686;  303,629;52915,754; 0,50624
 672,77;16678,797;  325,582;52726,363; 0,50573
 673,35;16655,799;  330,765;52685,742; 0,50610
 673,93;16720,473;  307,001;53014,137; 0,50667
 674,50;16720,182;  317,357;53024,859; 0,50695
 675,08;16736,227;  312,307;53038,137; 0,50655
 675,65;16759,543;  277,426;53216,438; 0,50676
 676,23;16900,664;  323,072;53543,258; 0,50655
 676,80;16984,621;  322,498;53900,023; 0,50725
 677,38;16985,285;  293,385;53868,008; 0,50645
 677,95;17116,686;  320,784;54339,199; 0,50734
 678,53;17268,871;  315,324;54684,531; 0,50609
 679,10;17253,275;  334,090;54514,672; 0,50546
 679,68;17343,576;  304,076;54926,871; 0,50592
 680,25;17572,027;  348,572;55554,227; 0,50586
 680,83;17442,424;  295,945;55138,211; 0,50494
 681,40;17572,455;  335,938;55532,293; 0,50546
 681,98;17491,568;  278,101;55335,977; 0,50495
 682,55;17547,633;  314,640;55580,426; 0,50610
 683,12;17576,318;  304,096;55685,441; 0,50602
 683,70;17606,055;  319,866;55718,035; 0,50580
 684,27;17586,871;  297,935;55712,422; 0,50586
 684,85;17723,797;  320,288;56038,406; 0,50536
 685,42;17700,666;  299,078;55991,926; 0,50521
 686,00;17740,480;  322,617;56050,535; 0,50508
 686,57;17933,619;  327,113;56713,582; 0,50550
 687,15;17880,879;  310,196;56621,039; 0,50580
 687,72;17928,625;  295,796;56781,586; 0,50562
 688,29;17949,609;  308,812;56715,680; 0,50481
 688,87;18005,898;  313,068;56937,207; 0,50520
 689,44;18040,639;  277,837;56983,203; 0,50411
 690,02;18149,064;  311,190;57270,969; 0,50423
 690,59;18164,016;  317,683;57420,836; 0,50511
 691,17;18256,635;  310,463;57627,164; 0,50431
 691,74;18326,816;  318,976;57871,406; 0,50460
 692,31;18368,299;  299,322;57852,164; 0,50313
 692,89;18423,508;  289,585;58121,703; 0,50368
 693,46;18598,008;  300,031;58590,320; 0,50319
 694,04;18589,783;  306,357;58540,563; 0,50312
 694,61;18685,205;  325,723;58794,379; 0,50306
 695,18;18727,945;  301,256;59028,563; 0,50339
 695,76;18747,008;  315,192;59022,719; 0,50313
 696,33;18836,953;  307,038;59281,770; 0,50279
 696,90;18960,072;  312,088;59613,645; 0,50243
 697,48;18966,141;  303,791;59606,820; 0,50211
 698,05;19041,844;  291,743;59763,484; 0,50131
 698,62;19143,672;  327,446;60044,328; 0,50156
 699,20;19169,641;  299,856;60113,863; 0,50104
 699,77;19258,127;  314,795;60333,434; 0,50083
 700,35;19259,793;  292,728;60468,285; 0,50142
 700,92;19265,688;  317,694;60292,422; 0,50041
 701,49;19370,160;  311,787;60598,523; 0,50014
 702,07;19481,676;  335,063;60971,645; 0,50064
 702,64;19457,352;  296,679;60882,664; 0,49996
 703,21;19492,604;  330,262;60962,133; 0,50025
 703,78;19560,127;  326,505;61124,387; 0,49983
 704,36;19539,744;  325,258;61058,793; 0,49980
 704,93;19587,311;  308,884;61206,875; 0,49953
 705,50;19572,184;  289,800;61101,320; 0,49883
 706,08;19692,229;  300,853;61521,926; 0,49929
 706,65;19728,004;  326,393;61438,508; 0,49829
 707,22;19844,346;  324,602;61828,801; 0,49843
 707,80;19872,936;  330,628;61867,340; 0,49816
 708,37;19834,498;  313,505;61605,164; 0,49690
 708,94;19754,004;  308,571;61356,707; 0,49685
 709,51;19871,633;  306,300;61705,441; 0,49668
 710,09;19923,082;  323,966;61762,090; 0,49620
 710,66;19952,486;  316,193;61914,949; 0,49651
 711,23;19999,967;  328,865;62005,336; 0,49629
 711,81;20003,768;  314,325;61964,410; 0,49570
 712,38;20018,387;  292,038;62005,492; 0,49533
 712,95;20133,260;  327,621;62353,750; 0,49579
 713,52;20123,576;  327,043;62318,785; 0,49574
 714,10;20120,891;  312,710;62218,641; 0,49489
 714,67;20199,383;  331,232;62476,828; 0,49525
 715,24;20160,100;  323,915;62402,285; 0,49548
 715,81;20053,541;  287,431;62018,852; 0,49459
 716,38;20237,051;  307,131;62531,781; 0,49446
 716,96;20245,963;  318,920;62580,766; 0,49478
 717,53;20254,592;  304,943;62558,520; 0,49423
 718,10;20308,031;  323,469;62643,547; 0,49393
 718,67;20297,660;  330,276;62472,113; 0,49306
 719,25;20456,545;  298,375;62944,988; 0,49245
 719,82;20430,951;  377,228;62808,266; 0,49321
 720,39;20291,990;  303,241;62398,375; 0,49227
 720,96;20480,672;  296,244;62881,996; 0,49146
 721,53;20432,639;  299,480;62650,535; 0,49093
 722,11;20461,326;  281,389;62742,840; 0,49069
 722,68;20482,922;  327,785;62705,746; 0,49065
 723,25;20597,584;  307,952;63116,324; 0,49074
 723,82;20681,736;  331,174;63303,469; 0,49057
 724,39;20658,320;  316,807;63204,863; 0,49018
 724,96;20783,629;  305,220;63551,828; 0,48974
 725,54;20813,023;  321,836;63525,164; 0,48917
 726,11;20796,840;  291,179;63470,418; 0,48870
 726,68;20808,059;  288,705;63350,008; 0,48760
 727,25;20879,268;  297,305;63504,883; 0,48728
 727,82;20835,877;  289,544;63162,441; 0,48573
 728,39;20954,373;  299,681;63499,219; 0,48570
 728,96;21053,672;  299,283;63776,574; 0,48551
 729,54;21097,145;  300,103;63968,535; 0,48592
 730,11;21141,652;  337,509;64052,082; 0,48609
 730,68;21149,545;  285,535;63979,152; 0,48470
 731,25;21160,578;  318,545;63756,156; 0,48341
 731,82;21312,029;  318,208;64444,973; 0,48495
 732,39;21272,072;  268,700;64245,633; 0,48373
 732,96;21321,252;  307,720;64394,926; 0,48427
 733,53;21270,369;  295,169;64226,301; 0,48401
 734,10;21493,100;  314,159;64681,398; 0,48276
 734,68;21463,305;  308,575;64579,781; 0,48261
 735,25;21471,688;  290,588;64659,172; 0,48273
 735,82;21455,445;  296,231;64426,020; 0,48156
 736,39;21596,766;  324,217;64790,184; 0,48151
 736,96;21547,014;  289,826;64522,348; 0,48025
 737,53;21636,389;  332,999;64684,570; 0,48011
 738,10;21565,016;  286,965;64524,641; 0,47986
 738,67;21581,537;  313,768;64547,660; 0,48004
 739,24;21644,410;  318,754;64647,926; 0,47951
 739,81;21571,725;  286,317;64246,738; 0,47783
 740,38;21456,875;  265,693;63894,938; 0,47750
 740,95;21510,953;  313,810;64094,309; 0,47841
 741,52;21567,432;  294,572;64138,941; 0,47730
 742,09;21393,318;  335,325;63400,000; 0,47637
 742,66;21528,607;  287,955;63930,457; 0,47658
 743,23;21457,949;  325,504;63861,508; 0,47807
 743,80;21526,398;  321,287;63920,262; 0,47701
 744,37;21390,658;  306,657;63629,094; 0,47760
 744,94;21364,811;  312,923;63506,762; 0,47738
 745,51;21382,592;  293,406;63430,633; 0,47623
 746,09;21437,980;  343,325;63432,191; 0,47578
 746,66;21196,563;  311,835;62717,250; 0,47539
 747,23;21323,133;  367,531;63029,645; 0,47570
 747,80;21197,711;  301,000;62722,141; 0,47525
 748,36;21051,084;  299,373;62309,301; 0,47541
 748,93;21120,393;  285,269;62515,016; 0,47520
 749,50;21112,521;  330,052;62509,871; 0,47595
 750,07;21103,793;  315,115;62458,895; 0,47557
 750,64;21036,049;  299,761;62287,793; 0,47558
 751,21;20907,352;  322,134;61758,969; 0,47487
 751,78;20899,924;  316,247;61843,027; 0,47554
 752,35;20873,643;  316,670;61687,902; 0,47501
 752,92;20829,645;  313,349;61531,895; 0,47478
 753,49;20804,408;  395,979;61249,926; 0,47448
 754,06;20749,574;  324,078;61286,328; 0,47489
 754,63;20776,373;  336,594;61323,238; 0,47476
 755,20;20564,578;  294,201;60628,602; 0,47370
 755,77;20719,117;  350,320;61044,719; 0,47418
 756,34;20674,582;  323,436;60891,141; 0,47365
 756,91;20542,428;  299,796;60502,496; 0,47335
 757,48;20619,227;  302,325;60617,301; 0,47257
 758,05;20596,811;  342,878;60616,121; 0,47362
 758,62;20394,775;  301,748;59962,781; 0,47265
 759,19;20447,193;  342,804;60078,652; 0,47294
 759,75;20372,631;  293,597;59875,891; 0,47237
 760,32;20350,469;  310,073;59687,145; 0,47171
 760,89;20245,428;  312,382;59418,660; 0,47206
 761,46;20156,703;  325,175;59138,051; 0,47212
 762,03;20153,809;  318,215;59301,371; 0,47328
 762,60;20075,564;  299,471;59012,582; 0,47259
 763,17;20126,994;  313,260;59051,059; 0,47195
 763,74;20135,563;  318,523;59026,262; 0,47166
 764,31;20036,832;  290,586;58810,379; 0,47182
 764,87;20081,830;  307,496;58805,121; 0,47104
 765,44;19984,934;  300,535;58436,098; 0,47032
 766,01;19887,059;  317,691;58118,613; 0,47036
 766,58;20059,348;  425,667;58303,934; 0,46951
 767,15;19853,127;  321,290;57853,297; 0,46917
 767,72;19834,752;  299,160;57847,125; 0,46920
 768,28;19860,682;  315,279;57838,043; 0,46880
 768,85;19876,863;  311,225;57804,789; 0,46813
 769,42;19802,279;  309,198;57498,457; 0,46743
 769,99;19680,516;  266,828;57202,051; 0,46727
 770,56;19807,168;  308,844;57456,320; 0,46700
 771,13;19731,684;  303,447;57146,938; 0,46625
 771,69;19695,178;  294,733;57023,488; 0,46599
 772,26;19672,502;  290,979;56930,391; 0,46573
 772,83;19635,303;  289,812;56740,016; 0,46509
 773,40;19631,752;  300,031;56754,953; 0,46543
 773,97;19608,400;  321,824;56645,035; 0,46543
 774,53;19561,270;  314,214;56500,926; 0,46527
 775,10;19477,148;  294,720;56314,457; 0,46544
 775,67;19524,352;  311,183;56417,555; 0,46541
 776,24;19494,123;  324,866;56272,063; 0,46517
 776,81;19404,354;  296,098;56015,332; 0,46478
 777,37;19404,346;  294,718;56125,988; 0,46563
 777,94;19377,088;  286,967;55903,113; 0,46439
 778,51;19395,914;  318,080;55942,879; 0,46474
 779,08;19314,680;  330,286;55651,563; 0,46450
 779,64;19276,352;  284,849;55593,563; 0,46423
 780,21;19333,094;  326,649;55734,867; 0,46467
 780,78;19316,648;  304,198;55697,520; 0,46442
 781,35;19268,516;  302,508;55430,723; 0,46340
 781,91;19235,100;  282,697;55245,191; 0,46240
 782,48;19194,902;  291,540;55172,008; 0,46288
 783,05;19047,822;  294,483;54661,047; 0,46225
 783,62;19068,570;  316,959;54645,105; 0,46199
 784,18;19019,199;  309,535;54466,676; 0,46159
 784,75;18924,385;  297,952;54159,391; 0,46115
 785,32;18922,754;  315,954;54133,324; 0,46125
 785,88;18864,891;  296,394;53863,848; 0,46012
 786,45;18879,939;  330,633;53940,609; 0,46092
 787,02;18834,828;  286,043;53828,840; 0,46039
 787,58;18805,141;  339,116;53631,488; 0,46029
 788,15;18670,729;  325,032;53241,086; 0,46005
 788,72;18531,301;  300,505;52868,504; 0,45992
 789,29;18477,715;  291,204;52758,941; 0,46014
 789,85;18419,480;  316,500;52526,379; 0,46000
 790,42;18341,832;  300,100;52300,992; 0,45973
 790,99;18304,764;  332,619;52053,645; 0,45907
 791,55;18216,553;  307,239;51812,156; 0,45877
 792,12;18107,559;  307,578;51564,309; 0,45933
 792,69;18028,838;  323,698;51247,180; 0,45882
 793,25;17965,938;  297,541;51005,109; 0,45788
 793,82;18004,580;  330,087;51047,500; 0,45781
 794,38;17876,432;  281,243;50766,188; 0,45777
 794,95;17762,301;  311,536;50358,746; 0,45757
 795,52;17624,195;  302,542;49915,789; 0,45701
 796,08;17533,436;  295,108;49663,688; 0,45696
 796,65;17459,258;  336,981;49246,875; 0,45584
 797,22;17387,539;  285,934;49103,797; 0,45554
 797,78;17266,342;  310,187;48690,797; 0,45534
 798,35;17223,197;  320,543;48505,617; 0,45496
 798,91;17169,164;  336,272;48303,512; 0,45479
 799,48;17094,078;  323,579;48135,617; 0,45499
 800,05;16960,598;  304,558;47800,164; 0,45508
 800,61;16842,254;  311,774;47427,004; 0,45488
 801,18;16816,592;  325,977;47309,113; 0,45471
 801,74;16677,482;  326,350;46846,953; 0,45410
 802,31;16634,740;  336,183;46716,785; 0,45419
 802,88;16464,389;  308,802;46326,848; 0,45461
 803,44;16453,605;  321,415;46187,004; 0,45379
 804,01;16381,331;  315,745;45997,039; 0,45384
 804,57;16303,566;  320,844;45672,934; 0,45295
 805,14;16214,802;  311,717;45472,922; 0,45328
 805,70;16117,142;  326,073;45106,684; 0,45268
 806,27;16125,993;  298,593;45083,895; 0,45173
 806,83;16047,723;  325,882;44761,727; 0,45123
 807,40;15872,508;  307,358;44412,215; 0,45233
 807,96;15972,184;  397,191;44449,367; 0,45154
 808,53;15881,086;  298,201;44322,324; 0,45104
 809,10;15830,015;  319,820;44173,082; 0,45138
 809,66;15813,484;  322,380;44066,234; 0,45083
 810,23;15740,003;  358,999;43758,402; 0,45050
 810,79;15696,398;  323,782;43689,832; 0,45040
 811,36;15657,351;  310,285;43531,344; 0,44967
 811,92;15753,087;  319,544;43705,250; 0,44888
 812,49;15677,559;  294,841;43474,938; 0,44825
 813,05;15722,425;  333,493;43582,422; 0,44877
 813,62;15680,910;  315,176;43412,680; 0,44790
 814,18;15659,789;  332,002;43183,230; 0,44648
 814,75;15524,635;  314,925;42901,285; 0,44715
 815,31;15588,141;  355,635;42955,973; 0,44664
 815,87;15558,649;  350,794;42885,309; 0,44667
 816,44;15419,865;  315,810;42549,320; 0,44656
 817,00;15360,628;  303,363;42329,133; 0,44577
 817,57;15334,144;  324,169;42253,355; 0,44614
 818,13;15176,639;  324,656;41770,871; 0,44570
 818,70;15109,038;  348,135;41565,949; 0,44597
 819,26;15179,867;  379,891;41562,035; 0,44445
 819,83;15077,310;  343,678;41415,488; 0,44523
 820,39;15054,581;  347,317;41334,035; 0,44511
 820,95;14968,397;  322,510;41081,191; 0,44450
 821,52;14844,423;  315,366;40740,387; 0,44441
 822,08;14860,878;  334,492;40737,992; 0,44426
 822,65;14815,444;  329,988;40596,523; 0,44401
 823,21;14688,420;  317,251;40203,523; 0,44333
 823,78;14800,466;  356,007;40438,852; 0,44326
 824,34;14688,958;  307,374;40183,773; 0,44291
 824,90;14782,663;  365,286;40291,438; 0,44237
 825,47;14715,119;  347,563;40073,594; 0,44169
 826,03;14631,972;  319,152;39918,398; 0,44196
 826,60;14562,454;  306,715;39686,176; 0,44128
 827,16;14657,376;  351,624;39908,438; 0,44171
 827,72;14632,731;  334,517;39787,492; 0,44080
 828,29;14481,950;  304,930;39437,758; 0,44096
 828,85;14578,816;  321,210;39617,621; 0,44031
 829,41;14502,528;  315,806;39406,234; 0,44019
 829,98;14557,298;  341,352;39448,457; 0,43948
 830,54;14511,047;  323,148;39348,680; 0,43943
 831,10;14483,846;  323,168;39261,637; 0,43929
 831,67;14514,121;  351,097;39286,512; 0,43919
 832,23;14509,557;  336,750;39184,047; 0,43790
 832,79;14436,326;  345,636;39022,223; 0,43852
 833,36;14467,521;  342,219;39036,254; 0,43765
 833,92;14437,960;  336,142;38925,148; 0,43719
 834,48;14390,093;  301,575;38779,023; 0,43634
 835,05;14395,191;  328,304;38773,152; 0,43664
 835,61;14415,504;  323,150;38816,496; 0,43640
 836,17;14430,649;  325,660;38845,570; 0,43631
 836,74;14434,039;  328,649;38814,098; 0,43591
 837,30;14385,471;  322,926;38637,809; 0,43530
 837,86;14363,950;  318,565;38512,160; 0,43446
 838,43;14285,133;  305,841;38363,832; 0,43496
 838,99;14345,385;  318,417;38441,797; 0,43423
 839,55;14329,547;  299,417;38408,387; 0,43397
 840,11;14316,659;  321,033;38362,875; 0,43427
 840,68;14290,212;  336,363;38269,094; 0,43432
 841,24;14226,558;  285,552;38122,633; 0,43362
 841,80;14217,482;  320,108;37978,410; 0,43293
 842,36;14261,929;  321,694;38083,344; 0,43278
 842,93;14260,987;  319,411;38053,176; 0,43242
 843,49;14256,610;  366,913;37923,219; 0,43199
 844,05;14205,905;  305,716;37885,328; 0,43193
 844,61;14182,008;  314,599;37720,914; 0,43095
 845,18;14114,580;  301,592;37579,570; 0,43116
 845,74;14117,770;  284,378;37592,324; 0,43087
 846,30;14131,675;  337,548;37492,375; 0,43032
 846,86;14094,221;  321,694;37375,344; 0,42982
 847,43;14110,692;  321,333;37395,883; 0,42953
 847,99;14000,062;  309,936;37079,863; 0,42909
 848,55;14025,817;  312,666;37081,375; 0,42834
 849,11;14017,623;  320,285;37038,496; 0,42825
 849,67;13973,445;  300,368;36913,082; 0,42777
 850,24;13921,348;  301,304;36744,723; 0,42744
 850,80;13876,696;  286,930;36617,105; 0,42706
 851,36;13968,979;  347,116;36743,574; 0,42682
 851,92;13900,725;  314,449;36580,047; 0,42639
 852,48;13850,757;  305,809;36449,813; 0,42626
 853,04;13824,933;  328,915;36354,129; 0,42640
 853,61;13813,425;  318,231;36297,203; 0,42587
 854,17;13857,761;  400,897;36161,066; 0,42446
 854,73;13735,243;  299,187;36036,578; 0,42485
 855,29;13691,646;  312,773;35881,414; 0,42465
 855,85;13645,418;  302,419;35707,727; 0,42381
 856,41;13610,776;  292,769;35638,445; 0,42390
 856,97;13640,176;  304,102;35680,738; 0,42369
 857,54;13570,761;  295,658;35460,859; 0,42308
 858,10;13595,163;  333,714;35406,227; 0,42238
 858,66;13502,196;  308,520;35188,742; 0,42221
 859,22;13557,318;  324,280;35154,438; 0,42030
 859,78;13432,391;  298,046;34900,406; 0,42070
 860,34;13429,350;  301,792;34857,613; 0,42034
 860,90;13480,108;  338,488;34910,375; 0,42007
 861,46;13384,764;  295,754;34708,359; 0,41981
 862,02;13333,613;  317,067;34529,262; 0,41969
 862,59;13257,582;  310,633;34362,523; 0,41997
 863,15;13244,234;  293,426;34337,504; 0,41974
 863,71;13234,424;  280,842;34332,258; 0,41975
 864,27;13341,482;  374,218;34430,199; 0,41935
 864,83;13157,321;  311,931;34005,742; 0,41880
 865,39;13210,104;  339,177;34049,379; 0,41815
 865,95;13139,119;  316,807;33897,254; 0,41812
 866,51;13102,918;  305,200;33828,723; 0,41822
 867,07;13060,940;  312,336;33668,098; 0,41771
 867,63;13023,833;  317,432;33554,676; 0,41760
 868,19;13036,419;  289,338;33597,973; 0,41715
 868,75;13001,411;  301,998;33463,352; 0,41685
 869,31;13037,570;  329,777;33494,523; 0,41661
 869,87;12974,065;  316,560;33335,813; 0,41642
 870,43;12983,265;  356,853;33308,383; 0,41660
 870,99;12943,940;  315,452;33220,332; 0,41591
 871,55;12878,226;  312,249;33108,828; 0,41663
 872,11;12900,638;  316,338;33088,535; 0,41568
 872,67;12928,500;  352,711;33102,332; 0,41567
 873,23;12867,673;  299,347;33061,512; 0,41610
 873,79;12913,872;  354,573;32991,648; 0,41475
 874,35;12894,324;  347,159;32961,270; 0,41486
 874,91;12763,008;  297,263;32650,561; 0,41420
 875,47;12742,897;  288,816;32585,131; 0,41384
 876,03;12835,491;  327,973;32714,684; 0,41320
 876,59;12813,527;  322,643;32636,449; 0,41279
 877,15;12829,594;  324,030;32647,736; 0,41242
 877,71;12889,521;  322,240;32759,000; 0,41180
 878,27;12871,791;  281,653;32754,273; 0,41149
 878,83;12971,150;  319,673;32887,520; 0,41065
 879,39;12936,230;  297,736;32804,969; 0,41028
 879,95;13054,008;  321,370;33038,867; 0,40986
 880,51;13096,395;  341,356;33096,695; 0,40960
 881,07;13109,084;  333,153;33095,410; 0,40898
 881,63;13114,377;  288,909;33150,910; 0,40862
 882,19;13227,808;  316,446;33393,605; 0,40856
 882,75;13304,848;  335,680;33501,969; 0,40778
 883,31;13336,145;  318,500;33617,559; 0,40790
 883,87;13366,435;  293,793;33670,785; 0,40708
 884,42;13484,827;  309,203;33887,332; 0,40629
 884,98;13521,360;  280,210;33974,578; 0,40563
 885,54;13616,188;  323,803;34173,340; 0,40595
 886,10;13664,194;  336,520;34298,176; 0,40623
 886,66;13717,311;  316,866;34411,715; 0,40557
 887,22;13736,690;  328,759;34458,691; 0,40577
 887,78;13774,211;  331,806;34497,457; 0,40511
 888,34;13747,480;  305,816;34449,758; 0,40486
 888,89;13756,567;  302,503;34459,141; 0,40462
 889,45;13806,264;  352,143;34489,418; 0,40437
 890,01;13715,044;  315,263;34238,980; 0,40341
 890,57;13638,104;  295,553;34111,547; 0,40388
 891,13;13606,784;  315,993;33997,707; 0,40384
 891,69;13523,764;  305,879;33767,906; 0,40339
 892,25;13445,857;  313,553;33556,363; 0,40336
 892,80;13382,110;  318,526;33397,730; 0,40349
 893,36;13285,848;  326,720;33125,590; 0,40328
 893,92;13218,384;  335,283;32913,453; 0,40291
 894,48;13128,014;  319,859;32666,150; 0,40234
 895,04;13121,264;  323,796;32588,756; 0,40161
 895,60;13041,348;  354,773;32343,150; 0,40165
 896,15;12941,667;  315,370;32119,750; 0,40121
 896,71;12886,561;  349,406;31854,127; 0,40018
 897,27;12797,997;  325,453;31667,689; 0,40017
 897,83;12771,421;  337,246;31560,869; 0,39987
 898,39;12681,874;  330,226;31269,174; 0,39878
 898,94;12688,617;  352,626;31297,063; 0,39941
 899,50;12481,357;  287,546;30850,461; 0,39906
 900,06;12432,997;  292,363;30727,797; 0,39914
 900,62;12471,730;  322,500;30739,631; 0,39857
 901,17;12500,957;  320,186;30802,000; 0,39837
 901,73;12379,940;  295,453;30432,104; 0,39687
 902,29;12349,497;  321,456;30364,086; 0,39754
 902,85;12299,484;  321,973;30208,764; 0,39711
 903,40;12332,188;  392,953;30099,547; 0,39588
 903,96;12250,354;  335,000;30043,344; 0,39677
 904,52;12165,280;  328,823;29813,859; 0,39638
 905,08;12087,521;  307,183;29644,199; 0,39626
 905,63;12135,771;  337,750;29683,807; 0,39574
 906,19;12127,374;  341,419;29614,199; 0,39510
 906,75;12048,911;  315,976;29437,990; 0,39481
 907,30;12027,204;  322,819;29329,543; 0,39415
 907,86;11975,984;  339,146;29184,607; 0,39424
 908,42;11958,614;  363,153;29041,650; 0,39327
 908,98;11919,938;  329,620;29019,066; 0,39363
 909,53;11863,884;  313,676;28824,916; 0,39243
 910,09;11868,607;  352,446;28805,350; 0,39282
 910,65;11843,794;  320,183;28725,104; 0,39180
 911,20;11786,588;  315,103;28542,783; 0,39106
 911,76;11784,197;  321,103;28519,920; 0,39093
 912,32;11803,098;  352,133;28480,619; 0,39030
 912,87;11720,107;  334,750;28316,291; 0,39052
 913,43;11655,561;  325,569;28157,490; 0,39031
 913,99;11656,791;  332,426;28124,311; 0,38990
 914,54;11599,268;  333,346;27947,199; 0,38936
 915,10;11607,147;  344,863;27948,434; 0,38934
 915,66;11541,881;  333,843;27772,287; 0,38883
 916,21;11581,110;  358,893;27821,607; 0,38866
 916,77;11502,377;  329,266;27647,113; 0,38827
 917,32;11458,627;  342,020;27506,791; 0,38803
 917,88;11380,917;  314,479;27318,801; 0,38743
 918,44;11383,787;  330,539;27283,377; 0,38711
 918,99;11317,697;  350,903;27115,893; 0,38749
 919,55;11284,721;  330,373;27002,000; 0,38646
 920,10;11258,258;  329,690;26937,877; 0,38645
 920,66;11236,451;  335,120;26853,430; 0,38607
 921,22;11095,501;  293,323;26517,900; 0,38520
 921,77;11212,188;  339,780;26720,053; 0,38495
 922,33;11080,728;  322,516;26438,211; 0,38516
 922,88;11095,391;  326,373;26443,873; 0,38476
 923,44;11031,484;  339,389;26272,783; 0,38480
 924,00;11045,104;  360,833;26269,199; 0,38470
 924,55;10935,911;  310,946;26086,520; 0,38488
 925,11;10955,388;  327,656;26085,363; 0,38447
 925,66;10901,864;  330,030;25899,340; 0,38357
 926,22;10856,388;  315,150;25805,840; 0,38349
 926,77;10872,308;  342,913;25787,227; 0,38319
 927,33;10813,641;  326,976;25647,494; 0,38284
 927,88;10732,110;  324,806;25408,188; 0,38205
 928,44;10741,771;  308,036;25442,143; 0,38182
 928,99;10708,171;  322,900;25342,744; 0,38187
 929,55;10722,614;  365,373;25320,967; 0,38192
 930,10;10628,294;  333,683;25134,137; 0,38185
 930,66;10638,811;  349,669;25150,053; 0,38208
 931,21;10581,024;  330,066;25002,613; 0,38145
 931,77;10513,617;  331,843;24813,777; 0,38102
 932,32;10494,817;  311,293;24737,750; 0,37996
 932,88;10510,928;  331,919;24742,340; 0,37987
 933,43;10485,274;  354,546;24600,811; 0,37900
 933,99;10407,784;  317,446;24447,779; 0,37866
 934,54;10383,724;  356,553;24343,576; 0,37880
 935,10;10324,537;  325,620;24237,484; 0,37866
 935,65;10299,537;  317,573;24160,721; 0,37815
 936,21;10264,457;  302,919;24081,447; 0,37786
 936,76;10276,808;  357,750;24023,211; 0,37764
 937,32;10223,444;  316,490;23926,971; 0,37716
 937,87;10220,114;  367,013;23831,037; 0,37683
 938,43;10206,351;  337,379;23809,449; 0,37628
 938,98;10161,468;  346,606;23696,680; 0,37640
 939,53;10035,724;  307,536;23426,150; 0,37593
 940,09;10103,758;  364,039;23507,891; 0,37589
 940,64; 9999,291;  330,086;23288,033; 0,37554
 941,20;10002,138;  327,520;23265,367; 0,37492
 941,75; 9959,264;  335,949;23133,123; 0,37456
 942,30; 9931,791;  326,609;23077,324; 0,37449
 942,86; 9849,701;  316,020;22871,221; 0,37399
 943,41; 9869,811;  323,383;22878,430; 0,37340
 943,97; 9823,431;  328,923;22731,424; 0,37282
 944,52; 9832,567;  349,120;22719,500; 0,37271
 945,07; 9803,424;  328,856;22631,084; 0,37179
 945,63; 9792,650;  361,253;22525,557; 0,37108
 946,18; 9709,701;  313,329;22422,061; 0,37160
 946,74; 9673,764;  329,896;22316,307; 0,37163
 947,29; 9669,511;  345,383;22262,164; 0,37117
 947,84; 9659,400;  345,463;22238,930; 0,37118
 948,40; 9634,928;  354,283;22138,906; 0,37057
 948,95; 9604,751;  374,699;21994,311; 0,36964
 949,50; 9526,734;  320,853;21901,193; 0,36999
 950,06; 9492,084;  315,343;21798,094; 0,36940
 950,61; 9454,617;  317,013;21674,791; 0,36872
 951,16; 9478,711;  341,699;21696,354; 0,36869
 951,72; 9437,657;  328,953;21590,311; 0,36813
 952,27; 9399,860;  316,356;21540,957; 0,36859
 952,82; 9328,991;  341,856;21377,557; 0,36934
 953,38; 9330,008;  347,293;21349,006; 0,36885
 953,93; 9245,234;  316,866;21156,010; 0,36811
 954,48; 9216,474;  304,520;21099,574; 0,36799
 955,03; 9192,917;  320,563;21010,557; 0,36772
 955,59; 9172,287;  337,883;20933,357; 0,36759
 956,14; 9135,088;  324,349;20850,250; 0,36729
 956,69; 9090,247;  313,336;20693,604; 0,36587
 957,24; 9065,014;  324,863;20621,277; 0,36590
 957,80; 9057,421;  332,193;20558,971; 0,36515
 958,35; 9009,188;  345,060;20392,063; 0,36432
 958,90; 8972,701;  328,349;20320,246; 0,36412
 959,46; 8935,601;  314,813;20244,896; 0,36396
 960,01; 8895,468;  321,210;20149,254; 0,36408
 960,56; 8860,371;  311,023;20028,123; 0,36291
 961,11; 8849,768;  341,780;19956,270; 0,36275
 961,66; 8780,088;  297,353;19813,641; 0,36186
 962,22; 8801,957;  327,990;19812,863; 0,36161
 962,77; 8746,935;  332,829;19671,803; 0,36143
 963,32; 8645,150;  307,109;19447,703; 0,36089
 963,87; 8675,594;  324,520;19473,566; 0,36040
 964,43; 8617,844;  314,126;19302,424; 0,35921
 964,98; 8662,794;  368,533;19323,627; 0,35895
 965,53; 8524,351;  307,970;19081,119; 0,35886
 966,08; 8547,048;  346,866;19087,438; 0,35896
 966,63; 8467,018;  328,900;18904,447; 0,35842
 967,18; 8454,897;  326,566;18860,768; 0,35797
 967,74; 8384,728;  338,280;18698,416; 0,35827
 968,29; 8323,327;  312,139;18552,326; 0,35733
 968,84; 8297,084;  312,696;18491,916; 0,35733
 969,39; 8197,554;  309,376;18249,277; 0,35684
 969,94; 8186,507;  331,393;18220,383; 0,35743
 970,49; 8178,268;  334,493;18175,291; 0,35689
 971,05; 8102,281;  325,690;18011,246; 0,35683
 971,60; 8059,861;  334,683;17874,477; 0,35612
 972,15; 7983,507;  320,906;17710,006; 0,35590
 972,70; 8016,184;  361,250;17720,066; 0,35558
 973,25; 7930,867;  335,423;17528,996; 0,35481
 973,80; 7888,974;  341,199;17446,477; 0,35531
 974,35; 7822,081;  313,656;17294,844; 0,35442
 974,90; 7771,734;  325,913;17165,637; 0,35442
 975,46; 7742,384;  335,093;17083,080; 0,35430
 976,01; 7716,777;  340,206;17021,221; 0,35437
 976,56; 7647,291;  336,873;16863,770; 0,35425
 977,11; 7552,811;  319,639;16673,439; 0,35429
 977,66; 7455,664;  311,886;16437,311; 0,35358
 978,21; 7478,157;  338,949;16425,244; 0,35281
 978,76; 7409,804;  315,729;16309,356; 0,35305
 979,31; 7372,208;  341,560;16166,604; 0,35235
 979,86; 7306,927;  321,590;16027,063; 0,35186
 980,41; 7281,791;  339,889;15936,970; 0,35156
 980,96; 7161,647;  308,419;15667,900; 0,35048
 981,51; 7186,987;  354,233;15650,816; 0,35000
 982,06; 7122,401;  320,483;15544,354; 0,34989
 982,61; 7089,084;  368,573;15415,583; 0,35005
 983,16; 6998,941;  337,389;15246,920; 0,34989
 983,72; 6939,308;  340,720;15110,470; 0,34992
 984,27; 6900,667;  352,810;15016,460; 0,35014
 984,82; 6839,657;  332,116;14886,377; 0,34957
 985,37; 6772,987;  331,829;14730,396; 0,34936
 985,92; 6704,967;  323,743;14573,066; 0,34889
 986,47; 6645,851;  326,916;14444,174; 0,34911
 987,02; 6640,248;  363,246;14357,077; 0,34818
 987,57; 6537,971;  334,663;14161,747; 0,34811
 988,12; 6491,697;  326,046;14052,720; 0,34759
 988,67; 6470,824;  344,076;13970,917; 0,34717
 989,22; 6411,007;  343,116;13840,757; 0,34722
 989,76; 6368,607;  342,810;13735,253; 0,34685
 990,31; 6329,334;  357,053;13610,970; 0,34620
 990,86; 6244,321;  331,393;13473,486; 0,34686
 991,41; 6194,797;  334,376;13362,050; 0,34694
 991,96; 6152,157;  340,823;13218,177; 0,34555
 992,51; 6127,861;  365,150;13122,137; 0,34512
 993,06; 6086,001;  376,736;13025,747; 0,34548
 993,61; 6060,281;  391,900;12917,964; 0,34436
 994,16; 5966,924;  366,063;12740,100; 0,34426
 994,71; 5878,284;  336,563;12554,187; 0,34334
 995,26; 5862,728;  356,479;12483,227; 0,34289
 995,81; 5880,454;  411,453;12431,280; 0,34199
 996,36; 5763,857;  336,840;12250,800; 0,34149
 996,91; 5724,677;  383,083;12125,714; 0,34209
 997,46; 5725,534;  416,060;12074,117; 0,34157
 998,00; 5592,014;  351,789;11870,943; 0,34207
 998,55; 5573,741;  362,436;11794,634; 0,34118
 999,10; 5480,748;  335,819;11633,977; 0,34163
 999,65; 5469,817;  357,443;11553,483; 0,34044
1000,20; 5451,941;  388,166;11491,830; 0,34099
1000,75; 5456,711;  427,319;11418,377; 0,33952
1001,30; 5312,724;  354,716;11218,967; 0,34069
1001,85; 5270,384;  358,786;11119,483; 0,34062
1002,39; 5250,591;  379,113;11021,630; 0,33938
1002,94; 5160,814;  338,780;10859,420; 0,33881
1003,49; 5151,784;  365,256;10797,493; 0,33836
1004,04; 5129,078;  387,306;10738,090; 0,33903
1004,59; 5100,254;  415,506;10605,120; 0,33747
1005,14; 4989,277;  364,629;10427,347; 0,33764
1005,68; 4940,771;  355,613;10330,743; 0,33756
1006,23; 4906,417;  361,889;10233,000; 0,33688
1006,78; 4874,564;  368,796;10152,743; 0,33675
1007,33; 4810,387;  348,536;10034,720; 0,33664
1007,88; 4774,644;  358,353; 9932,217; 0,33603
1008,42; 4769,741;  383,746; 9875,250; 0,33527
1008,97; 4717,291;  363,986; 9764,117; 0,33431
1009,52; 4668,661;  357,970; 9674,340; 0,33470
1010,07; 4603,311;  335,506; 9567,073; 0,33507
1010,62; 4563,137;  347,163; 9471,924; 0,33532
1011,16; 4561,294;  363,590; 9415,930; 0,33375
1011,71; 4517,931;  352,223; 9345,510; 0,33423
1012,26; 4521,254;  389,313; 9282,820; 0,33292
1012,81; 4459,938;  366,883; 9203,290; 0,33423
1013,35; 4474,748;  382,616; 9200,693; 0,33342
1013,90; 4423,098;  364,389; 9102,137; 0,33301
1014,45; 4368,688;  335,509; 9002,356; 0,33221
1015,00; 4350,384;  350,053; 8929,097; 0,33134
1015,54; 4324,761;  358,333; 8864,333; 0,33133
1016,09; 4257,194;  333,803; 8738,930; 0,33088
1016,64; 4193,214;  330,663; 8596,644; 0,33042
1017,19; 4124,487;  317,963; 8462,384; 0,33033
1017,73; 4137,034;  383,216; 8394,490; 0,32923
1018,28; 4022,144;  347,166; 8180,037; 0,32867
1018,83; 3978,694;  358,283; 8042,693; 0,32685
1019,37; 3887,311;  333,733; 7885,047; 0,32736
1019,92; 3860,081;  361,786; 7791,400; 0,32711
1020,47; 3790,677;  352,613; 7663,210; 0,32764
1021,01; 3744,564;  340,866; 7571,914; 0,32725
1021,56; 3659,284;  316,960; 7420,100; 0,32740
1022,11; 3672,517;  344,176; 7412,487; 0,32709
1022,65; 3782,061;  492,306; 7422,330; 0,32357
1023,20; 3617,874;  376,536; 7246,720; 0,32624
1023,75; 3555,974;  358,120; 7138,394; 0,32639
1024,29; 3499,877;  340,039; 7031,867; 0,32588
1024,84; 3468,637;  354,376; 6948,097; 0,32578
1025,39; 3478,304;  389,063; 6918,900; 0,32505
1025,93; 3397,791;  346,919; 6809,707; 0,32600
1026,48; 3356,264;  338,616; 6720,283; 0,32527
1027,02; 3382,124;  394,599; 6708,773; 0,32501
1027,57; 3280,811;  345,359; 6542,934; 0,32455
1028,12; 3242,961;  333,916; 6471,030; 0,32421
1028,66; 3218,611;  348,806; 6404,217; 0,32429
1029,21; 3167,067;  333,713; 6304,967; 0,32376
1029,76; 3141,721;  339,803; 6241,130; 0,32349
1030,30; 3152,597;  380,986; 6207,597; 0,32268
1030,85; 3094,647;  370,063; 6108,160; 0,32347
1031,39; 3075,198;  370,733; 6040,474; 0,32148
1031,94; 3028,951;  343,223; 5972,513; 0,32139
1032,48; 2965,731;  324,673; 5838,660; 0,31969
1033,03; 2947,694;  329,169; 5817,297; 0,32137
1033,58; 2957,944;  368,229; 5782,210; 0,32026
1034,12; 2915,254;  360,720; 5686,133; 0,31904
1034,67; 2926,804;  399,076; 5649,287; 0,31745
1035,21; 2856,377;  365,473; 5551,737; 0,31850
1035,76; 2813,511;  344,960; 5484,537; 0,31849
1036,30; 2778,004;  348,030; 5413,547; 0,31902
1036,85; 2784,424;  380,396; 5377,013; 0,31774
1037,39; 2786,297;  416,466; 5334,184; 0,31705
1037,94; 2690,414;  349,196; 5207,890; 0,31708
1038,48; 2659,067;  338,643; 5141,737; 0,31595
1039,03; 2667,281;  373,493; 5108,557; 0,31477
1039,57; 2623,281;  366,930; 5024,490; 0,31475
1040,12; 2600,617;  364,776; 4981,644; 0,31491
1040,66; 2547,741;  348,836; 4879,820; 0,31399
1041,21; 2507,137;  352,936; 4811,423; 0,31590
1041,75; 2490,347;  351,656; 4769,130; 0,31503
1042,30; 2585,954;  459,243; 4828,610; 0,31271
1042,84; 2429,794;  342,613; 4642,390; 0,31389
1043,39; 2392,044;  344,900; 4561,894; 0,31385
1043,93; 2373,674;  343,566; 4520,994; 0,31339
1044,48; 2366,104;  362,359; 4489,937; 0,31385
1045,02; 2317,511;  343,566; 4416,013; 0,31452
1045,56; 2277,267;  331,503; 4340,793; 0,31398
1046,11; 2313,304;  386,669; 4333,570; 0,31146
1046,65; 2240,004;  347,596; 4235,907; 0,31275
1047,20; 2199,941;  330,393; 4167,097; 0,31222
1047,74; 2225,257;  381,756; 4147,160; 0,31017
1048,29; 2137,161;  322,349; 4045,970; 0,31213
1048,83; 2141,974;  347,240; 4011,200; 0,30995
1049,37; 2126,801;  351,456; 3983,350; 0,31085
1049,92; 2106,724;  356,576; 3936,160; 0,31076
1050,46; 2060,924;  342,889; 3850,480; 0,30998
1051,01; 2058,517;  352,203; 3833,090; 0,30963
1051,55; 2014,254;  341,103; 3753,723; 0,30955
1052,09; 1987,211;  343,909; 3693,370; 0,30926
1052,64; 1993,514;  354,220; 3679,400; 0,30716
1053,18; 2033,957;  423,710; 3684,783; 0,30647
1053,72; 1911,937;  334,703; 3533,437; 0,30708
1054,27; 1892,201;  335,210; 3491,753; 0,30693
1054,81; 1904,144;  364,639; 3485,010; 0,30683
1055,35; 1839,217;  327,106; 3388,440; 0,30633
1055,90; 1858,007;  366,440; 3392,307; 0,30721
1056,44; 1796,071;  329,490; 3299,423; 0,30644
1056,98; 1800,481;  355,383; 3278,530; 0,30595
1057,53; 1792,121;  362,373; 3248,990; 0,30513
1058,07; 1743,774;  345,326; 3171,057; 0,30548
1058,61; 1734,707;  351,180; 3140,150; 0,30446
1059,16; 1725,621;  368,546; 3108,967; 0,30521
1059,70; 1682,914;  347,456; 3047,287; 0,30571
1060,24; 1735,697;  412,843; 3069,753; 0,30286
1060,79; 1634,414;  341,276; 2943,720; 0,30374
1061,33; 1635,231;  362,563; 2916,407; 0,30248
1061,87; 1590,451;  337,963; 2852,107; 0,30262
1062,41; 1568,871;  340,879; 2816,517; 0,30449
1062,96; 1559,324;  341,323; 2783,697; 0,30216
1063,50; 1537,137;  341,463; 2740,027; 0,30234
1064,04; 1508,174;  337,530; 2700,487; 0,30503
1064,58; 1498,651;  343,353; 2670,340; 0,30410
1065,13; 1499,251;  356,750; 2655,497; 0,30363
1065,67; 1441,361;  322,683; 2574,650; 0,30386
1066,21; 1476,361;  364,620; 2595,043; 0,30238
1066,75; 1445,467;  353,186; 2547,043; 0,30287
1067,30; 1418,441;  347,159; 2501,800; 0,30347
1067,84; 1399,941;  342,446; 2455,923; 0,30072
1068,38; 1401,001;  350,966; 2449,183; 0,30065
1068,92; 1405,071;  372,113; 2430,747; 0,29950
1069,47; 1373,114;  356,023; 2392,167; 0,30145
1070,01; 1385,297;  377,866; 2389,163; 0,30026
1070,55; 1343,241;  348,099; 2332,950; 0,29984
1071,09; 1328,427;  353,516; 2300,533; 0,30040
1071,63; 1342,107;  383,440; 2299,667; 0,30078
1072,17; 1281,024;  334,406; 2224,487; 0,30031
1072,72; 1282,807;  349,373; 2212,077; 0,30006
1073,26; 1373,191;  436,223; 2281,950; 0,29444
1073,80; 1269,114;  353,056; 2174,157; 0,29841
1074,34; 1259,237;  359,900; 2157,660; 0,30081
1074,88; 1337,614;  436,163; 2207,467; 0,29335
1075,42; 1230,934;  355,943; 2099,837; 0,29952
1075,97; 1232,944;  363,093; 2083,614; 0,29621
1076,51; 1215,727;  359,293; 2053,867; 0,29637
1077,05; 1184,967;  344,363; 2008,640; 0,29663
1077,59; 1192,907;  366,263; 2009,293; 0,29833
1078,13; 1185,764;  361,016; 1990,213; 0,29565
1078,67; 1158,491;  352,346; 1945,463; 0,29583
1079,21; 1264,321;  459,393; 2036,727; 0,29217
1079,75; 1153,294;  365,949; 1928,377; 0,29763
1080,30; 1088,287;  321,243; 1838,057; 0,29611
1080,84; 1131,044;  372,430; 1875,903; 0,29707
1081,38; 1090,381;  337,859; 1823,847; 0,29550
1081,92; 1098,097;  356,223; 1821,410; 0,29556
1082,46; 1106,857;  373,710; 1816,893; 0,29413
1083,00; 1078,814;  352,409; 1781,943; 0,29402
1083,54; 1082,284;  370,983; 1773,647; 0,29490
1084,08; 1066,804;  363,356; 1750,513; 0,29489
1084,62; 1068,067;  376,706; 1744,307; 0,29625
1085,16; 1048,671;  365,873; 1706,487; 0,29301
1085,70; 1039,024;  363,773; 1692,007; 0,29381
1086,24; 1005,251;  342,343; 1640,340; 0,29182
1086,78; 1014,671;  357,363; 1641,280; 0,29077
1087,32; 1032,927;  382,909; 1653,523; 0,29109
1087,86;  993,107;  352,190; 1610,090; 0,29284
1088,40;  992,581;  362,673; 1597,190; 0,29222
1088,94; 1016,894;  389,316; 1610,973; 0,28928
1089,48;  979,457;  367,039; 1570,150; 0,29326
1090,02;  955,397;  349,173; 1535,157; 0,29145
1090,56;  985,531;  386,066; 1553,667; 0,28953
1091,10;  979,294;  389,313; 1537,490; 0,28917
1091,64;  956,057;  375,203; 1510,520; 0,29105
1092,18;  957,304;  383,013; 1501,997; 0,28969
1092,72;  898,784;  336,460; 1436,147; 0,29128
1093,26;  936,541;  377,626; 1473,520; 0,29242
1093,80;  918,604;  372,243; 1436,850; 0,28971
1094,34;  899,074;  354,829; 1415,547; 0,28981
1094,88;  914,661;  377,946; 1425,693; 0,29051
1095,42;  930,181;  396,336; 1428,953; 0,28652
1095,96;  885,401;  361,909; 1375,670; 0,28703
1096,50;  876,407;  364,099; 1367,727; 0,29204
1097,04;  872,447;  363,473; 1352,963; 0,28872
1097,58;  871,607;  368,253; 1340,923; 0,28609
1098,12;  860,404;  366,406; 1321,510; 0,28633
1098,66;  873,454;  386,746; 1333,703; 0,28906
1099,20;  859,557;  376,586; 1305,960; 0,28427
1099,73;  840,751;  366,770; 1282,293; 0,28591
1100,27;  853,377;  383,053; 1289,500; 0,28494

