
Integration time [ms]: 200,000
Averaging Nr. [scans]: 300
Smoothing Nr. [pixels]: 0
Data measured with spectrometer [name]: 2112124U1
Wave   ;Sample   ;Dark     ;Reference;Absorbance
[nm]   ;[counts] ;[counts] ;[counts] ;[A.U]

 176,03;  369,059;  360,085;  361,766;-0,72737
 176,64;  388,621;  383,568;  380,058; 0,00000
 177,24;  365,681;  360,240;  358,030; 0,00000
 177,84;  385,157;  376,289;  375,041; 0,00000
 178,44;  391,671;  382,372;  384,307;-0,68177
 179,05;  404,908;  395,102;  393,245; 0,00000
 179,65;  368,499;  363,385;  360,949; 0,00000
 180,25;  367,506;  358,266;  363,503;-0,24664
 180,85;  379,851;  370,726;  368,972; 0,00000
 181,45;  374,677;  370,023;  370,344; 0,00000
 182,06;  361,912;  356,396;  354,159; 0,00000
 182,66;  422,813;  411,715;  411,613; 0,00000
 183,26;  373,057;  366,866;  366,806; 0,00000
 183,86;  405,769;  396,660;  394,765; 0,00000
 184,46;  351,448;  344,907;  345,601; 0,00000
 185,07;  372,388;  365,721;  369,104;-0,29469
 185,67;  415,582;  385,432;  484,410; 0,51625
 186,27;  418,894;  392,948;  491,702; 0,58049
 186,87;  402,452;  374,503;  470,507; 0,53593
 187,47;  420,909;  390,680;  490,031; 0,51674
 188,07;  411,032;  382,374;  482,569; 0,54360
 188,68;  395,062;  364,576;  475,468; 0,56080
 189,28;  384,941;  359,107;  458,738; 0,58620
 189,88;  397,489;  374,931;  462,542; 0,58926
 190,48;  399,963;  377,407;  457,720; 0,55153
 191,08;  435,863;  408,082;  501,853; 0,52832
 191,68;  396,476;  366,924;  470,092; 0,54296
 192,29;  458,915;  421,445;  535,607; 0,48383
 192,89;  419,672;  388,983;  500,960; 0,56215
 193,49;  436,589;  400,717;  518,844; 0,51760
 194,09;  413,265;  379,127;  498,981; 0,54542
 194,69;  455,164;  418,284;  540,034; 0,51868
 195,29;  381,940;  354,652;  472,590; 0,63568
 195,90;  409,303;  373,513;  499,556; 0,54676
 196,50;  424,453;  388,568;  516,374; 0,55164
 197,10;  436,767;  404,543;  533,403; 0,60194
 197,70;  406,981;  372,677;  503,428; 0,58110
 198,30;  409,556;  377,380;  509,028; 0,61188
 198,90;  426,560;  393,536;  531,489; 0,62090
 199,50;  418,684;  384,133;  531,112; 0,62880
 200,11;  426,943;  391,639;  552,233; 0,65791
 200,71;  448,056;  409,695;  591,699; 0,67619
 201,31;  453,558;  406,580;  620,877; 0,65913
 201,91;  436,785;  384,883;  644,043; 0,69839
 202,51;  443,663;  384,918;  699,059; 0,72816
 203,11;  473,077;  404,412;  782,940; 0,74136
 203,71;  439,292;  359,274;  812,596; 0,75322
 204,31;  458,475;  370,261;  896,564; 0,77570
 204,91;  487,973;  388,517;  994,399; 0,78476
 205,52;  462,841;  360,153; 1028,559; 0,81352
 206,12;  497,236;  380,197; 1120,244; 0,80093
 206,72;  505,433;  382,223; 1194,932; 0,81929
 207,32;  503,706;  367,923; 1244,209; 0,80980
 207,92;  533,769;  391,240; 1337,763; 0,82223
 208,52;  553,153;  397,423; 1429,559; 0,82136
 209,12;  539,380;  377,125; 1505,057; 0,84208
 209,72;  567,700;  387,141; 1638,489; 0,84076
 210,32;  557,792;  364,232; 1737,570; 0,85096
 210,92;  594,291;  375,875; 1893,642; 0,84192
 211,53;  606,451;  373,543; 2040,929; 0,85485
 212,13;  609,194;  356,459; 2185,346; 0,85952
 212,73;  660,116;  390,919; 2373,938; 0,86726
 213,33;  625,502;  340,581; 2452,200; 0,86989
 213,93;  664,257;  365,789; 2589,309; 0,87214
 214,53;  789,984;  463,088; 2774,877; 0,84954
 215,13;  689,329;  374,299; 2706,247; 0,86937
 215,73;  650,390;  352,064; 2586,147; 0,87441
 216,33;  599,638;  330,625; 2324,925; 0,87002
 216,93;  574,118;  353,156; 1976,703; 0,86615
 217,53;  558,302;  372,175; 1751,992; 0,87001
 218,13;  589,900;  378,767; 2006,463; 0,88702
 218,73;  656,218;  351,796; 2816,591; 0,90830
 219,33;  785,168;  351,077; 3875,882; 0,90955
 219,93;  929,779;  385,258; 4878,317; 0,91653
 220,53; 1014,334;  372,999; 5634,988; 0,91406
 221,14; 1067,262;  364,044; 6196,632; 0,91877
 221,74; 1121,201;  361,626; 6684,458; 0,92034
 222,34; 1146,834;  343,687; 7080,172; 0,92364
 222,94; 1197,828;  349,855; 7501,498; 0,92602
 223,54; 1215,737;  328,743; 7905,167; 0,93154
 224,14; 1379,078;  431,994; 8480,714; 0,92934
 224,74; 1347,132;  360,118; 8926,688; 0,93848
 225,34; 1392,340;  357,229; 9339,535; 0,93840
 225,94; 1409,562;  338,030; 9767,511; 0,94448
 226,54; 1468,309;  350,738;10257,946; 0,94768
 227,14; 1528,770;  365,936;10757,968; 0,95118
 227,74; 1549,987;  350,104;11086,055; 0,95170
 228,34; 1592,823;  351,450;11592,785; 0,95692
 228,94; 1595,436;  325,353;11914,619; 0,96022
 229,54; 1676,803;  360,508;12403,170; 0,96137
 230,14; 1709,310;  346,823;12903,004; 0,96453
 230,74; 1756,767;  344,565;13441,471; 0,96727
 231,34; 1820,073;  356,340;14021,042; 0,97014
 231,94; 1871,384;  352,503;14666,870; 0,97425
 232,54; 1897,615;  334,666;15158,793; 0,97702
 233,14; 1978,819;  373,015;15710,777; 0,98007
 233,74; 1976,425;  332,580;16139,117; 0,98298
 234,34; 1995,831;  328,087;16457,922; 0,98550
 234,94; 2047,172;  350,162;16796,764; 0,98639
 235,54; 2012,864;  323,556;16830,246; 0,98995
 236,14; 2048,518;  360,183;16906,576; 0,99124
 236,74; 2003,234;  345,190;16768,246; 0,99586
 237,34; 1996,582;  356,368;16610,350; 0,99606
 237,94; 1927,826;  324,546;16318,009; 0,99893
 238,54; 1896,034;  321,561;16034,139; 0,99911
 239,14; 1862,477;  335,450;15675,290; 1,00197
 239,74; 1791,625;  303,739;15249,012; 1,00193
 240,34; 1765,176;  323,579;14915,701; 1,00527
 240,93; 1849,324;  436,979;14666,622; 1,00325
 241,53; 1721,453;  362,617;14235,317; 1,00899
 242,13; 1736,428;  406,027;13863,337; 1,00498
 242,73; 1599,176;  330,655;13429,511; 1,01394
 243,33; 1562,700;  332,617;13016,658; 1,01332
 243,93; 1584,314;  389,052;12693,787; 1,01261
 244,53; 1491,928;  338,653;12294,700; 1,01565
 245,13; 1480,432;  365,120;11965,734; 1,01708
 245,73; 1456,243;  369,150;11664,556; 1,01664
 246,33; 1414,298;  352,846;11441,659; 1,01898
 246,93; 1373,649;  336,518;11258,408; 1,02246
 247,53; 1373,836;  337,779;11272,542; 1,02343
 248,13; 1350,057;  326,586;11280,047; 1,02948
 248,73; 1386,401;  341,941;11505,646; 1,02892
 249,33; 1417,089;  347,648;11886,436; 1,03300
 249,93; 1460,861;  355,854;12402,773; 1,03751
 250,52; 1470,466;  320,376;12917,021; 1,03952
 251,12; 1566,471;  354,657;13668,991; 1,04088
 251,72; 1605,073;  332,946;14442,048; 1,04497
 252,32; 1662,221;  323,142;15252,449; 1,04723
 252,92; 1731,351;  319,625;16257,335; 1,05268
 253,52; 1836,578;  344,931;17276,217; 1,05502
 254,12; 1919,072;  346,708;18245,842; 1,05628
 254,72; 1994,765;  341,595;19301,486; 1,05952
 255,32; 2098,510;  353,358;20452,605; 1,06135
 255,92; 2157,136;  336,540;21473,709; 1,06483
 256,52; 2229,663;  341,163;22372,912; 1,06693
 257,11; 2288,492;  332,922;23223,660; 1,06839
 257,71; 2393,547;  363,648;24227,588; 1,07027
 258,31; 2446,746;  379,392;24809,926; 1,07252
 258,91; 2445,573;  337,271;25322,371; 1,07375
 259,51; 2573,973;  416,632;26053,363; 1,07494
 260,11; 2475,891;  315,246;26167,789; 1,07792
 260,71; 2555,027;  368,256;26618,178; 1,07932
 261,31; 2506,573;  328,066;26545,822; 1,08044
 261,90; 2519,764;  328,584;26815,539; 1,08235
 262,50; 2554,152;  355,006;27070,449; 1,08451
 263,10; 2548,270;  344,284;27264,180; 1,08686
 263,70; 2552,599;  328,851;27603,250; 1,08867
 264,30; 2574,853;  343,649;27807,199; 1,09022
 264,90; 2570,420;  329,243;28012,723; 1,09174
 265,50; 2580,431;  344,093;28062,455; 1,09323
 266,09; 2594,302;  362,293;28060,172; 1,09375
 266,69; 2510,488;  320,229;27609,492; 1,09550
 267,29; 2516,354;  348,330;27436,844; 1,09672
 267,89; 2451,920;  327,077;27069,955; 1,09988
 268,49; 2435,810;  332,949;26784,717; 1,09964
 269,09; 2426,171;  349,774;26583,254; 1,10155
 269,68; 2402,704;  350,298;26420,529; 1,10388
 270,28; 2358,632;  330,266;26128,607; 1,10445
 270,88; 2359,011;  344,483;26201,021; 1,10840
 271,48; 2338,472;  336,837;26052,754; 1,10882
 272,08; 2323,621;  324,767;26156,395; 1,11137
 272,68; 2363,586;  347,896;26542,258; 1,11378
 273,27; 2394,063;  337,847;27155,920; 1,11536
 273,87; 2441,983;  352,211;27713,570; 1,11704
 274,47; 2520,717;  368,810;28546,043; 1,11707
 275,07; 2520,859;  324,017;29346,957; 1,12094
 275,67; 2593,606;  342,096;30026,178; 1,12005
 276,26; 2644,474;  354,399;30667,236; 1,12178
 276,86; 2672,014;  335,265;31333,146; 1,12272
 277,46; 2707,494;  338,462;31950,135; 1,12528
 278,06; 2720,946;  320,875;32421,756; 1,12629
 278,66; 2781,918;  346,072;33043,078; 1,12786
 279,25; 2768,975;  319,012;33308,609; 1,12922
 279,85; 2838,048;  358,168;33672,867; 1,12821
 280,45; 2845,483;  348,762;34131,902; 1,13133
 281,05; 2835,265;  335,839;34245,816; 1,13249
 281,65; 2885,969;  375,927;34542,508; 1,13392
 282,24; 2889,210;  380,260;34644,141; 1,13534
 282,84; 2835,649;  328,879;34561,949; 1,13533
 283,44; 2848,396;  343,119;34750,844; 1,13780
 284,04; 2836,321;  340,057;34782,652; 1,13981
 284,63; 2831,510;  363,828;34727,520; 1,14381
 285,23; 2828,588;  328,020;34873,770; 1,14036
 285,83; 2835,135;  343,171;34850,891; 1,14137
 286,43; 2815,651;  343,839;34739,059; 1,14348
 287,02; 2857,626;  401,625;34383,414; 1,14102
 287,62; 2737,743;  329,739;33740,402; 1,14223
 288,22; 2708,250;  351,950;33117,680; 1,14319
 288,82; 2639,624;  346,985;32371,410; 1,14515
 289,41; 2584,754;  341,009;31804,914; 1,14684
 290,01; 2590,578;  364,071;31650,410; 1,14773
 290,61; 2623,324;  377,785;32036,463; 1,14917
 291,21; 2603,271;  332,162;32409,295; 1,14996
 291,80; 2626,908;  332,678;32792,180; 1,15070
 292,40; 2650,548;  345,497;32995,141; 1,15120
 293,00; 2661,650;  357,397;32992,750; 1,15116
 293,60; 2624,901;  335,086;32815,305; 1,15182
 294,19; 2607,749;  325,297;32738,178; 1,15232
 294,79; 2598,501;  331,451;32544,539; 1,15257
 295,39; 2611,126;  368,093;32224,730; 1,15236
 295,98; 2538,549;  327,771;31756,078; 1,15278
 296,58; 2487,760;  332,681;31028,328; 1,15361
 297,18; 2407,362;  315,494;30103,504; 1,15351
 297,77; 2398,880;  355,326;29573,545; 1,15527
 298,37; 2393,262;  345,247;29785,182; 1,15760
 298,97; 2460,877;  347,663;30829,982; 1,15910
 299,57; 2510,451;  317,408;31970,611; 1,15937
 300,16; 2592,057;  338,623;32820,301; 1,15879
 300,76; 2667,043;  358,279;33690,355; 1,15948
 301,36; 2707,770;  361,151;34230,387; 1,15936
 301,95; 2702,156;  316,304;34798,539; 1,15995
 302,55; 2767,907;  355,675;35232,215; 1,16011
 303,15; 2761,321;  325,198;35579,992; 1,16052
 303,74; 2804,327;  343,892;35958,609; 1,16062
 304,34; 2826,540;  342,763;36314,242; 1,16085
 304,94; 2831,226;  332,414;36606,313; 1,16186
 305,53; 2874,303;  362,732;36751,719; 1,16102
 306,13; 2863,593;  326,919;37116,277; 1,16146
 306,73; 2921,829;  367,097;37418,402; 1,16146
 307,32; 2913,522;  350,834;37456,480; 1,16074
 307,92; 2876,233;  337,315;37351,227; 1,16372
 308,52; 2898,872;  348,734;37361,039; 1,16178
 309,11; 2872,035;  342,473;37038,258; 1,16157
 309,71; 2891,656;  380,133;36921,305; 1,16285
 310,31; 2802,268;  293,010;36688,867; 1,16151
 310,90; 2812,642;  326,332;36533,406; 1,16324
 311,50; 2827,772;  335,359;36653,270; 1,16350
 312,10; 2840,064;  346,057;36714,820; 1,16383
 312,69; 2814,465;  318,119;36715,879; 1,16377
 313,29; 2844,636;  348,324;36717,684; 1,16344
 313,88; 2788,859;  312,732;36372,906; 1,16325
 314,48; 2798,473;  350,385;36023,531; 1,16351
 315,08; 2688,065;  297,472;35179,883; 1,16410
 315,67; 2704,835;  338,998;34849,176; 1,16396
 316,27; 2618,975;  303,228;34085,301; 1,16400
 316,87; 2607,543;  350,102;33402,055; 1,16558
 317,46; 2509,663;  297,755;32568,320; 1,16404
 318,06; 2509,113;  337,915;32186,400; 1,16639
 318,65; 2481,707;  323,899;31861,992; 1,16482
 319,25; 2465,531;  336,088;31660,230; 1,16761
 319,85; 2430,909;  321,136;31307,520; 1,16694
 320,44; 2434,165;  347,466;30953,359; 1,16635
 321,04; 2394,735;  326,130;30715,531; 1,16704
 321,63; 2390,333;  331,955;30592,676; 1,16735
 322,23; 2353,682;  292,786;30467,719; 1,16559
 322,83; 2384,262;  327,474;30515,471; 1,16664
 323,42; 2357,715;  332,559;30154,465; 1,16808
 324,02; 2318,926;  310,722;29795,477; 1,16679
 324,61; 2310,087;  314,178;29573,896; 1,16613
 325,21; 2324,323;  349,034;29261,375; 1,16545
 325,80; 2286,909;  329,734;29058,357; 1,16669
 326,40; 2415,630;  463,153;28794,930; 1,16169
 327,00; 2226,005;  315,383;28220,221; 1,16450
 327,59; 2212,420;  317,191;27992,975; 1,16444
 328,19; 2214,581;  341,769;27739,691; 1,16522
 328,78; 2175,769;  329,765;27395,291; 1,16618
 329,38; 2162,413;  331,314;27147,514; 1,16569
 329,97; 2146,528;  324,245;26933,363; 1,16441
 330,57; 2125,912;  329,113;26638,295; 1,16561
 331,16; 2100,340;  320,243;26262,889; 1,16357
 331,76; 2089,131;  321,632;25970,570; 1,16171
 332,36; 2084,431;  341,464;25631,371; 1,16166
 332,95; 2050,414;  325,077;25301,270; 1,16065
 333,55; 2070,862;  355,424;25195,656; 1,16078
 334,14; 2032,277;  314,962;25133,727; 1,15993
 334,74; 2051,192;  323,212;25246,543; 1,15907
 335,33; 2063,002;  310,558;25461,807; 1,15692
 335,93; 2092,125;  321,198;25871,047; 1,15919
 336,52; 2108,844;  311,280;26125,580; 1,15718
 337,12; 2180,698;  358,353;26425,563; 1,15546
 337,71; 2173,269;  331,151;26636,682; 1,15473
 338,31; 2212,790;  349,798;26886,191; 1,15363
 338,90; 2235,235;  359,218;27016,051; 1,15257
 339,50; 2234,561;  332,774;27194,943; 1,14998
 340,09; 2233,450;  330,714;27193,990; 1,14978
 340,69; 2226,302;  314,062;27191,070; 1,14784
 341,28; 2252,665;  334,554;27114,424; 1,14493
 341,88; 2217,039;  327,602;26736,094; 1,14541
 342,47; 2235,905;  337,203;26654,141; 1,14178
 343,07; 2256,054;  329,782;27111,371; 1,14312
 343,66; 2275,213;  319,164;27382,406; 1,14100
 344,26; 2335,565;  315,472;28215,020; 1,14023
 344,85; 2382,272;  321,748;28705,811; 1,13910
 345,45; 2437,876;  319,328;29186,760; 1,13437
 346,04; 2521,343;  363,798;29553,707; 1,13127
 346,64; 2497,417;  329,933;29681,266; 1,13167
 347,23; 2506,331;  312,849;29850,771; 1,12925
 347,83; 2573,363;  340,044;30171,982; 1,12573
 348,42; 2642,116;  379,754;30248,139; 1,12065
 349,01; 2586,662;  331,950;30043,031; 1,11983
 349,61; 2545,419;  289,497;29912,385; 1,11830
 350,20; 2620,428;  338,670;30007,291; 1,11403
 350,80; 2610,979;  315,180;30000,828; 1,11161
 351,39; 2620,847;  323,399;29855,340; 1,10905
 351,99; 2605,679;  307,432;29664,795; 1,10632
 352,58; 2618,702;  322,275;29502,271; 1,10403
 353,18; 2624,690;  350,621;29067,752; 1,10134
 353,77; 2580,860;  319,401;28610,082; 1,09725
 354,36; 2623,979;  363,933;28394,861; 1,09352
 354,96; 2561,739;  323,516;28010,125; 1,09237
 355,55; 2559,802;  312,437;27860,438; 1,08842
 356,15; 2572,604;  330,544;27708,092; 1,08675
 356,74; 2572,966;  314,084;27694,348; 1,08354
 357,34; 2608,535;  325,215;27665,398; 1,07823
 357,93; 2646,978;  330,943;27768,234; 1,07360
 358,52; 2633,949;  313,833;27667,830; 1,07151
 359,12; 2667,742;  329,189;27592,291; 1,06663
 359,71; 2664,175;  324,720;27354,119; 1,06272
 360,31; 2658,794;  319,603;27162,744; 1,05977
 360,90; 2635,573;  308,969;26681,320; 1,05443
 361,49; 2660,648;  327,363;26486,975; 1,04966
 362,09; 2650,000;  334,750;26122,840; 1,04682
 362,68; 2623,431;  327,317;25547,441; 1,04075
 363,28; 2560,846;  314,169;24740,945; 1,03633
 363,87; 2494,604;  303,751;23894,488; 1,03213
 364,46; 2486,599;  325,776;23378,375; 1,02810
 365,06; 2499,337;  347,966;23117,025; 1,02463
 365,65; 2495,582;  331,132;23129,883; 1,02256
 366,24; 2527,962;  317,893;23358,945; 1,01810
 366,84; 2582,019;  351,946;23333,225; 1,01306
 367,43; 2512,438;  306,425;22885,377; 1,01010
 368,03; 2523,200;  318,536;22545,277; 1,00353
 368,62; 2468,539;  305,168;21980,707; 1,00084
 369,21; 2478,786;  326,363;21691,662; 0,99678
 369,81; 2448,118;  320,450;21166,752; 0,99113
 370,40; 2421,630;  333,881;20593,443; 0,98695
 370,99; 2375,826;  303,137;20252,689; 0,98340
 371,59; 2411,490;  352,136;19950,072; 0,97848
 372,18; 2327,965;  288,455;19588,654; 0,97604
 372,77; 2349,163;  324,144;19257,648; 0,97080
 373,37; 2317,593;  311,511;18901,502; 0,96693
 373,96; 2338,361;  338,941;18713,932; 0,96332
 374,55; 2307,792;  304,986;18537,557; 0,95921
 375,15; 2368,508;  333,459;18660,934; 0,95453
 375,74; 2354,078;  303,049;18655,016; 0,95171
 376,33; 2377,294;  302,584;18703,863; 0,94789
 376,93; 2446,915;  329,167;18992,068; 0,94510
 377,52; 2516,389;  320,726;19512,434; 0,94155
 378,11; 2547,766;  293,780;19794,580; 0,93710
 378,71; 2657,833;  313,230;20435,998; 0,93362
 379,30; 2740,745;  313,851;20944,291; 0,92946
 379,89; 2759,960;  317,272;20801,727; 0,92356
 380,49; 2788,749;  345,041;20700,744; 0,92064
 381,08; 2776,330;  310,804;20625,727; 0,91591
 381,67; 2813,094;  345,783;20551,613; 0,91325
 382,26; 2835,603;  319,894;20787,807; 0,91041
 382,86; 2880,532;  312,601;20923,523; 0,90451
 383,45; 2846,864;  307,675;20545,236; 0,90146
 384,04; 2946,748;  406,782;20370,605; 0,89542
 384,64; 2865,479;  328,606;20173,217; 0,89334
 385,23; 2853,700;  316,863;20077,385; 0,89151
 385,82; 2925,577;  328,841;20318,053; 0,88637
 386,41; 3023,258;  326,346;20979,469; 0,88412
 387,01; 3214,823;  356,374;22083,871; 0,88088
 387,60; 3314,301;  334,946;22828,563; 0,87794
 388,19; 3463,438;  355,375;23536,895; 0,87265
 388,78; 3504,399;  339,551;23658,555; 0,86736
 389,38; 3431,306;  322,049;23018,770; 0,86331
 389,97; 3419,518;  305,389;22962,205; 0,86186
 390,56; 3536,111;  336,349;23379,697; 0,85743
 391,15; 3590,660;  305,641;23809,744; 0,85461
 391,75; 3742,725;  339,052;24484,654; 0,85089
 392,34; 3934,804;  332,839;25726,035; 0,84818
 392,93; 4081,383;  355,482;26294,539; 0,84272
 393,52; 3979,772;  309,316;25522,092; 0,83690
 394,12; 3866,173;  334,016;24551,967; 0,83610
 394,71; 3837,104;  288,556;24456,102; 0,83318
 395,30; 3857,890;  289,076;24281,830; 0,82756
 395,89; 3925,511;  349,207;24286,957; 0,82565
 396,49; 3995,146;  332,882;24648,262; 0,82213
 397,08; 4098,027;  317,254;25247,852; 0,81915
 397,67; 4322,437;  335,400;26447,506; 0,81619
 398,26; 4549,424;  335,033;27655,400; 0,81175
 398,85; 4553,638;  318,964;27441,340; 0,80651
 399,45; 4395,860;  314,448;26241,176; 0,80294
 400,04; 4354,793;  358,283;25589,816; 0,80026
 400,63; 4266,508;  307,540;25218,330; 0,79881
 401,22; 4331,104;  320,670;25276,740; 0,79398
 401,81; 4248,444;  309,772;24606,875; 0,79020
 402,41; 4343,919;  417,593;24442,350; 0,78667
 403,00; 4245,190;  318,910;24249,396; 0,78497
 403,59; 4293,236;  350,205;24188,498; 0,78144
 404,18; 4259,563;  314,737;24004,834; 0,77854
 404,77; 4296,739;  320,921;24121,902; 0,77717
 405,36; 4315,338;  300,147;24137,236; 0,77355
 405,96; 4217,284;  310,058;23220,281; 0,76816
 406,55; 4026,823;  302,865;22050,420; 0,76641
 407,14; 3973,753;  308,178;21666,172; 0,76542
 407,73; 4032,230;  340,507;21753,471; 0,76345
 408,32; 4131,157;  310,319;22386,865; 0,76177
 408,91; 4235,060;  326,255;22630,313; 0,75634
 409,51; 4194,208;  328,485;22229,078; 0,75323
 410,10; 4068,679;  282,990;21608,207; 0,75075
 410,69; 3977,265;  303,361;20784,264; 0,74622
 411,28; 3891,348;  307,734;20263,029; 0,74574
 411,87; 3871,352;  321,629;19937,164; 0,74241
 412,46; 3874,347;  314,398;19937,150; 0,74132
 413,05; 3886,763;  342,649;19703,902; 0,73743
 413,64; 3760,925;  295,160;19076,104; 0,73392
 414,24; 3637,242;  307,466;18259,146; 0,73169
 414,83; 3616,195;  343,144;17909,514; 0,72973
 415,42; 3570,038;  333,481;17641,084; 0,72815
 416,01; 3607,955;  314,763;17855,305; 0,72643
 416,60; 3687,863;  356,694;17976,219; 0,72340
 417,19; 3674,534;  314,747;17938,844; 0,71980
 417,78; 3740,475;  357,811;18033,521; 0,71812
 418,37; 3734,772;  329,286;18057,180; 0,71648
 418,96; 3803,004;  332,481;18329,111; 0,71480
 419,56; 3852,843;  331,036;18497,662; 0,71251
 420,15; 3907,246;  310,794;18813,955; 0,71137
 420,74; 4069,621;  320,123;19542,234; 0,70983
 421,33; 4270,591;  306,377;20561,982; 0,70839
 421,92; 4372,106;  340,829;20671,750; 0,70271
 422,51; 4135,824;  316,919;19414,900; 0,69905
 423,10; 3981,724;  330,832;18588,023; 0,69903
 423,69; 3844,934;  325,424;17824,646; 0,69654
 424,28; 3734,248;  309,095;17336,279; 0,69646
 424,87; 3759,587;  326,887;17276,467; 0,69352
 425,46; 3708,359;  351,671;16758,803; 0,68912
 426,05; 3534,429;  316,481;16081,728; 0,69012
 426,64; 3498,027;  305,841;15978,011; 0,69104
 427,24; 3724,499;  344,035;16804,531; 0,68747
 427,83; 3662,401;  274,800;16670,225; 0,68483
 428,42; 3718,971;  342,896;16661,053; 0,68426
 429,01; 3807,057;  285,055;17347,168; 0,68524
 429,60; 4221,003;  339,989;19104,686; 0,68440
 430,19; 4383,789;  332,868;19634,428; 0,67804
 430,78; 4204,091;  342,418;18565,756; 0,67385
 431,37; 3898,917;  372,486;16839,295; 0,66927
 431,96; 3571,630;  339,941;15553,188; 0,67279
 432,55; 3463,682;  321,509;15163,475; 0,67426
 433,14; 3609,185;  309,542;16044,614; 0,67840
 433,73; 4024,955;  343,113;17603,203; 0,67098
 434,32; 3840,050;  347,339;16363,508; 0,66140
 434,91; 3538,031;  291,776;15422,009; 0,66846
 435,50; 3622,973;  347,692;15482,210; 0,66472
 436,09; 3632,918;  332,149;15637,316; 0,66622
 436,68; 3677,251;  334,301;15719,837; 0,66298
 437,27; 3550,080;  327,328;15035,827; 0,65934
 437,86; 3531,630;  315,031;15078,494; 0,66179
 438,45; 3645,883;  331,853;15473,938; 0,65983
 439,04; 3631,887;  325,057;15358,031; 0,65763
 439,63; 3573,971;  318,390;15078,922; 0,65647
 440,22; 3610,554;  348,409;15141,058; 0,65654
 440,81; 3913,650;  337,444;16730,488; 0,66124
 441,40; 4328,280;  339,683;18374,789; 0,65530
 441,99; 4194,532;  321,980;17582,588; 0,64906
 442,58; 4067,256;  323,034;17141,949; 0,65244
 443,17; 4184,780;  311,104;17734,111; 0,65300
 443,76; 4282,066;  331,320;17910,510; 0,64832
 444,35; 4184,854;  328,073;17435,666; 0,64696
 444,94; 4201,582;  355,709;17382,781; 0,64615
 445,53; 4091,716;  329,913;16956,162; 0,64540
 446,12; 4125,988;  336,521;17131,809; 0,64661
 446,71; 4178,611;  352,864;17180,354; 0,64330
 447,29; 4044,960;  343,182;16581,564; 0,64213
 447,88; 3948,995;  332,495;16187,663; 0,64188
 448,47; 3975,139;  338,368;16266,140; 0,64144
 449,06; 4030,270;  314,734;16558,213; 0,64066
 449,65; 4094,408;  334,777;16710,730; 0,63906
 450,24; 4093,565;  342,382;16661,139; 0,63852
 450,83; 4015,725;  338,601;16286,759; 0,63720
 451,42; 4003,087;  328,151;16318,315; 0,63860
 452,01; 4047,134;  326,842;16439,650; 0,63659
 452,60; 4018,527;  346,208;16128,940; 0,63324
 453,19; 3879,884;  332,449;15558,139; 0,63266
 453,78; 3800,775;  310,454;15284,736; 0,63248
 454,37; 3865,196;  360,490;15422,726; 0,63324
 454,95; 3992,313;  348,093;16048,419; 0,63430
 455,54; 4028,596;  318,593;16136,688; 0,62978
 456,13; 3904,819;  346,680;15487,373; 0,62892
 456,72; 3907,795;  332,567;15641,142; 0,63163
 457,31; 4106,840;  345,328;16400,982; 0,63027
 457,90; 4223,715;  349,150;16855,381; 0,62942
 458,49; 4274,646;  336,551;17033,602; 0,62735
 459,08; 4271,485;  328,696;17043,375; 0,62729
 459,67; 4349,204;  364,575;17237,633; 0,62681
 460,25; 4249,263;  348,060;16781,980; 0,62454
 460,84; 4259,783;  341,515;16861,957; 0,62493
 461,43; 4087,878;  328,759;16023,012; 0,62065
 462,02; 3780,150;  318,689;14794,191; 0,62137
 462,61; 3733,490;  308,528;14785,124; 0,62601
 463,20; 4001,633;  345,430;15756,023; 0,62479
 463,79; 4193,310;  323,114;16559,641; 0,62276
 464,37; 4325,569;  351,902;17023,367; 0,62278
 464,96; 4470,864;  327,519;17646,559; 0,62117
 465,55; 4604,088;  309,586;18158,438; 0,61870
 466,14; 4384,870;  330,745;17039,525; 0,61505
 466,73; 3901,022;  325,655;15032,316; 0,61419
 467,32; 3757,661;  337,854;14508,477; 0,61739
 467,90; 3730,923;  323,250;14414,938; 0,61651
 468,49; 3632,837;  321,325;13916,073; 0,61334
 469,08; 3438,009;  321,166;13136,986; 0,61403
 469,67; 3324,069;  328,626;12695,922; 0,61581
 470,26; 3289,911;  313,395;12559,830; 0,61430
 470,85; 3256,764;  299,552;12480,969; 0,61482
 471,43; 3301,693;  321,005;12602,268; 0,61493
 472,02; 3370,358;  316,632;12906,532; 0,61519
 472,61; 3487,191;  301,118;13437,555; 0,61522
 473,20; 3688,185;  358,280;14023,160; 0,61317
 473,79; 3651,802;  346,202;13830,846; 0,61059
 474,37; 3622,522;  338,464;13780,721; 0,61206
 474,96; 3798,768;  330,287;14583,107; 0,61376
 475,55; 3792,987;  314,761;14403,431; 0,60751
 476,14; 3613,165;  311,537;13683,688; 0,60747
 476,72; 3537,251;  331,043;13303,588; 0,60703
 477,31; 3434,910;  316,057;12985,107; 0,60875
 477,90; 3616,091;  318,904;13738,083; 0,60958
 478,49; 3606,487;  318,129;13549,364; 0,60462
 479,08; 3523,918;  332,413;13243,997; 0,60698
 479,66; 3651,039;  310,728;13875,031; 0,60861
 480,25; 3757,744;  311,043;14219,396; 0,60587
 480,84; 3648,391;  308,632;13730,607; 0,60410
 481,43; 3758,562;  347,375;14142,333; 0,60681
 482,01; 3709,854;  292,309;13942,782; 0,60143
 482,60; 3537,202;  346,524;13098,231; 0,60169
 483,19; 3472,781;  310,527;13048,366; 0,60510
 483,78; 3631,415;  322,650;13672,611; 0,60581
 484,36; 3910,052;  311,520;14891,580; 0,60763
 484,95; 4613,483;  344,823;18579,404; 0,63060
 485,54;10044,949;  328,117;40502,590; 0,61643
 486,12;10982,401;  323,706;40410,520; 0,57530
 486,71; 5345,248;  310,591;18751,363; 0,56381
 487,30; 4019,225;  335,957;14819,509; 0,59464
 487,89; 3450,012;  325,748;12514,656; 0,59122
 488,47; 3155,168;  295,591;11603,951; 0,59710
 489,06; 3165,276;  316,463;11575,978; 0,59686
 489,65; 3131,118;  355,341;11266,909; 0,59450
 490,23; 3043,024;  361,139;10942,286; 0,59609
 490,82; 2996,452;  303,619;10937,221; 0,59647
 491,41; 3006,461;  326,297;10870,940; 0,59487
 492,00; 2951,627;  345,532;10651,551; 0,59710
 492,58; 2954,731;  324,445;10621,289; 0,59270
 493,17; 2966,231;  333,966;10700,254; 0,59529
 493,76; 3032,300;  398,260;10736,825; 0,59384
 494,34; 2980,695;  350,544;10645,819; 0,59266
 494,93; 2867,587;  343,493;10161,253; 0,58991
 495,52; 2818,229;  328,559;10177,805; 0,59726
 496,10; 3126,299;  317,407;11400,070; 0,59611
 496,69; 3105,172;  352,159;10928,375; 0,58452
 497,28; 2772,370;  393,059; 9517,639; 0,58376
 497,86; 2634,143;  324,829; 9317,378; 0,59040
 498,45; 2715,431;  312,333; 9695,438; 0,59158
 499,04; 2859,700;  350,916;10122,075; 0,59048
 499,62; 2929,584;  376,735;10220,077; 0,58612
 500,21; 2764,833;  346,371; 9636,579; 0,58449
 500,80; 2720,843;  318,063; 9697,120; 0,59145
 501,38; 2851,270;  328,892;10114,727; 0,58879
 501,97; 2854,976;  333,129;10052,751; 0,58593
 502,55; 2823,629;  323,333; 9987,355; 0,58717
 503,14; 2825,065;  322,978; 9953,820; 0,58536
 503,73; 2731,933;  313,898; 9580,801; 0,58347
 504,31; 2602,485;  311,573; 9120,442; 0,58491
 504,90; 2661,459;  349,119; 9251,674; 0,58546
 505,49; 2620,754;  320,179; 9180,311; 0,58560
 506,07; 2693,530;  335,290; 9422,761; 0,58586
 506,66; 2617,712;  302,735; 9120,313; 0,58080
 507,24; 2452,564;  313,190; 8517,741; 0,58377
 507,83; 2506,634;  303,041; 8787,331; 0,58548
 508,42; 2520,241;  289,609; 8758,297; 0,57939
 509,00; 2463,483;  338,337; 8399,396; 0,57900
 509,59; 2420,509;  336,317; 8273,204; 0,58071
 510,17; 2432,947;  327,608; 8317,195; 0,57920
 510,76; 2409,216;  344,803; 8158,958; 0,57809
 511,34; 2342,700;  312,100; 7965,839; 0,57625
 511,93; 2262,034;  325,068; 7615,515; 0,57563
 512,52; 2235,402;  324,009; 7525,500; 0,57607
 513,10; 2229,459;  316,527; 7511,817; 0,57535
 513,69; 2204,201;  334,197; 7359,125; 0,57480
 514,27; 2153,021;  319,883; 7190,599; 0,57381
 514,86; 2103,418;  350,522; 6843,645; 0,56870
 515,44; 2034,445;  304,801; 6795,849; 0,57436
 516,03; 2122,895;  331,216; 7055,729; 0,57440
 516,61; 2154,461;  351,743; 7047,037; 0,56984
 517,20; 2042,735;  305,505; 6757,669; 0,56985
 517,79; 2019,048;  351,295; 6549,768; 0,57015
 518,37; 2020,426;  328,449; 6661,492; 0,57322
 518,96; 2225,190;  437,029; 7058,706; 0,56856
 519,54; 2046,917;  296,059; 6743,821; 0,56616
 520,13; 1972,271;  345,298; 6327,904; 0,56551
 520,71; 1934,855;  307,564; 6347,159; 0,56954
 521,30; 2017,590;  323,702; 6553,108; 0,56556
 521,88; 1963,414;  313,611; 6381,205; 0,56558
 522,47; 2028,662;  339,170; 6578,267; 0,56737
 523,05; 2063,185;  331,082; 6718,754; 0,56677
 523,64; 2139,688;  332,276; 7008,169; 0,56745
 524,22; 2177,959;  328,083; 7126,842; 0,56529
 524,81; 2165,991;  324,383; 7085,186; 0,56480
 525,39; 2210,347;  333,523; 7270,596; 0,56775
 525,98; 2270,694;  319,088; 7529,497; 0,56757
 526,56; 2356,714;  331,801; 7810,998; 0,56745
 527,15; 2423,823;  326,330; 8029,121; 0,56495
 527,73; 2472,165;  358,773; 8150,000; 0,56663
 528,32; 2584,218;  327,102; 8700,708; 0,56936
 528,90; 2743,216;  319,242; 9211,103; 0,56446
 529,49; 2723,280;  326,499; 9084,329; 0,56277
 530,07; 2698,860;  319,326; 9020,797; 0,56310
 530,66; 2768,727;  362,735; 9147,239; 0,56242
 531,24; 2772,292;  355,365; 9209,779; 0,56390
 531,82; 2783,624;  333,281; 9279,736; 0,56242
 532,41; 2818,916;  335,565; 9393,586; 0,56200
 532,99; 2985,068;  342,162; 9986,318; 0,56218
 533,58; 3090,568;  372,468;10193,546; 0,55789
 534,16; 2999,346;  332,112; 9991,844; 0,55890
 534,75; 3052,709;  369,301;10039,107; 0,55673
 535,33; 2953,426;  325,694; 9797,634; 0,55686
 535,92; 2862,224;  313,586; 9428,243; 0,55343
 536,50; 2785,416;  342,084; 9137,723; 0,55629
 537,08; 2782,601;  307,677; 9259,770; 0,55836
 537,67; 2997,869;  359,655; 9875,081; 0,55712
 538,25; 3081,351;  343,448;10185,392; 0,55566
 538,84; 3152,817;  366,201;10378,470; 0,55546
 539,42; 3147,565;  338,703;10406,311; 0,55440
 540,00; 3124,955;  346,201;10308,475; 0,55451
 540,59; 3226,169;  357,330;10646,413; 0,55467
 541,17; 3320,423;  357,702;10925,381; 0,55229
 541,76; 3432,755;  406,348;11157,524; 0,55053
 542,34; 3377,114;  349,575;11150,021; 0,55235
 542,92; 3396,562;  323,025;11231,487; 0,55013
 543,51; 3474,490;  340,954;11483,552; 0,55095
 544,09; 3574,842;  342,869;11768,570; 0,54842
 544,68; 3596,694;  338,745;11846,358; 0,54804
 545,26; 3506,717;  322,037;11528,122; 0,54639
 545,84; 3459,841;  345,898;11355,218; 0,54845
 546,43; 3535,159;  352,237;11633,034; 0,54951
 547,01; 3721,438;  341,794;12328,290; 0,54982
 547,59; 4002,287;  333,287;13295,950; 0,54815
 548,18; 4072,405;  319,020;13477,768; 0,54479
 548,76; 3956,496;  343,821;12956,009; 0,54296
 549,34; 3942,240;  347,592;12959,278; 0,54512
 549,93; 4050,095;  331,908;13396,520; 0,54577
 550,51; 4152,443;  341,259;13655,715; 0,54326
 551,09; 4247,260;  332,512;14064,419; 0,54503
 551,68; 4588,088;  325,956;15313,372; 0,54610
 552,26; 4838,390;  319,078;16054,329; 0,54180
 552,84; 4870,880;  330,176;16126,793; 0,54144
 553,43; 5003,617;  330,518;16609,824; 0,54203
 554,01; 5084,550;  327,864;16846,107; 0,54066
 554,59; 5215,165;  334,176;17304,756; 0,54119
 555,18; 5456,622;  315,864;18210,252; 0,54169
 555,76; 5624,026;  296,268;18770,006; 0,54001
 556,34; 5670,964;  334,064;18803,180; 0,53916
 556,93; 5730,439;  332,732;19037,109; 0,53973
 557,51; 5884,375;  379,596;19407,863; 0,53866
 558,09; 5901,646;  325,126;19653,461; 0,53983
 558,68; 5889,599;  310,223;19578,646; 0,53826
 559,26; 6010,958;  305,494;20079,125; 0,53980
 559,84; 6294,320;  338,257;20928,541; 0,53870
 560,42; 6524,855;  323,273;21632,443; 0,53606
 561,01; 6591,593;  329,274;21801,416; 0,53514
 561,59; 6587,647;  343,752;21761,336; 0,53531
 562,17; 6591,481;  320,015;21822,777; 0,53513
 562,75; 6684,737;  303,459;22212,414; 0,53571
 563,34; 6927,296;  350,306;22840,463; 0,53397
 563,92; 7065,810;  334,385;23309,400; 0,53315
 564,50; 7221,802;  347,287;23816,904; 0,53326
 565,08; 7285,538;  332,575;23990,188; 0,53180
 565,67; 7399,154;  315,524;24407,879; 0,53162
 566,25; 7580,938;  324,361;25043,109; 0,53229
 566,83; 7861,586;  310,043;26002,693; 0,53177
 567,41; 8145,698;  307,694;26864,346; 0,52997
 568,00; 8362,282;  318,602;27578,098; 0,53006
 568,58; 8699,221;  330,325;28691,645; 0,53006
 569,16; 9165,130;  308,204;30254,402; 0,52906
 569,74; 9666,962;  323,078;31694,836; 0,52601
 570,33; 9824,785;  307,979;32238,350; 0,52571
 570,91;10187,696;  335,354;33287,762; 0,52435
 571,49;10521,591;  365,136;34196,570; 0,52258
 572,07;10349,072;  409,648;33379,770; 0,52076
 572,65;10148,556;  325,620;33166,969; 0,52418
 573,24;10802,756;  314,094;35402,422; 0,52444
 573,82;11399,391;  345,978;36940,250; 0,51992
 574,40;11485,757;  307,643;37206,457; 0,51864
 574,98;11263,209;  325,149;36321,063; 0,51731
 575,56;10906,761;  342,797;35305,594; 0,51978
 576,15;11192,760;  331,283;36444,941; 0,52178
 576,73;11795,324;  345,304;38271,254; 0,52013
 577,31;12557,256;  332,864;40730,934; 0,51913
 577,89;12992,324;  434,001;41372,285; 0,51320
 578,47;11934,759;  342,360;38100,273; 0,51283
 579,05;11429,051;  335,571;36961,430; 0,51872
 579,64;11765,048;  327,978;38149,742; 0,51943
 580,22;12055,228;  315,740;38993,223; 0,51781
 580,80;12754,176;  321,439;41491,742; 0,52002
 581,38;13921,217;  336,699;44793,004; 0,51489
 581,96;13645,363;  345,000;43209,230; 0,50823
 582,54;12483,360;  320,162;39879,230; 0,51220
 583,12;11761,235;  334,679;37817,656; 0,51592
 583,71;11808,592;  348,958;38114,020; 0,51792
 584,29;12372,410;  366,913;39877,848; 0,51734
 584,87;12845,103;  312,704;41334,879; 0,51498
 585,45;12965,098;  339,094;41426,105; 0,51244
 586,03;12535,723;  329,060;40190,816; 0,51396
 586,61;12530,375;  324,046;40341,074; 0,51566
 587,19;12861,932;  343,024;41367,223; 0,51547
 587,77;12707,813;  290,143;40869,516; 0,51427
 588,35;12539,070;  318,539;40352,125; 0,51533
 588,94;12467,205;  349,931;40041,684; 0,51530
 589,52;12450,740;  300,891;40129,879; 0,51563
 590,10;12486,069;  301,820;40146,281; 0,51457
 590,68;12548,278;  373,949;40275,145; 0,51554
 591,26;12558,772;  317,385;40355,266; 0,51464
 591,84;12602,641;  322,392;40498,332; 0,51476
 592,42;12908,815;  344,590;41463,688; 0,51491
 593,00;13152,377;  360,912;42085,039; 0,51347
 593,58;12966,588;  342,212;41580,227; 0,51409
 594,16;12838,699;  344,508;41272,152; 0,51531
 594,74;12968,850;  355,773;41625,711; 0,51481
 595,32;12940,771;  341,253;41529,727; 0,51442
 595,90;12890,416;  325,978;41413,207; 0,51456
 596,49;12779,742;  296,176;41045,473; 0,51378
 597,07;12856,323;  292,327;41379,789; 0,51458
 597,65;12855,941;  300,479;41331,523; 0,51428
 598,23;12902,987;  299,564;41577,086; 0,51523
 598,81;13017,377;  308,069;41853,652; 0,51440
 599,39;13047,349;  320,103;41912,695; 0,51428
 599,97;12993,595;  322,623;41645,785; 0,51338
 600,55;13043,224;  314,854;41803,969; 0,51316
 601,13;12987,232;  328,370;41685,090; 0,51415
 601,71;12951,207;  319,533;41543,684; 0,51369
 602,29;13048,043;  325,929;41870,480; 0,51395
 602,87;13036,267;  312,996;41923,664; 0,51461
 603,45;13008,218;  325,775;41771,234; 0,51427
 604,03;12958,462;  321,136;41569,832; 0,51376
 604,61;13020,307;  356,322;41745,887; 0,51432
 605,19;13007,402;  323,982;41766,016; 0,51420
 605,77;13076,337;  326,862;41873,930; 0,51305
 606,35;13050,671;  319,249;41888,105; 0,51389
 606,93;13022,987;  313,952;41878,719; 0,51461
 607,51;12991,429;  324,376;41718,586; 0,51426
 608,09;12988,031;  311,962;41753,996; 0,51446
 608,67;12929,657;  322,717;41587,102; 0,51497
 609,25;12922,721;  331,263;41568,695; 0,51522
 609,83;12916,681;  317,536;41591,645; 0,51534
 610,41;12881,642;  303,102;41406,539; 0,51425
 610,99;12880,004;  329,845;41430,703; 0,51520
 611,57;12843,888;  296,668;41312,484; 0,51440
 612,14;12844,891;  327,389;41321,168; 0,51520
 612,72;12755,500;  311,352;41132,063; 0,51592
 613,30;12802,819;  338,004;41230,605; 0,51596
 613,88;12743,277;  304,866;41069,121; 0,51551
 614,46;12631,582;  317,355;40657,109; 0,51533
 615,04;12783,157;  390,636;40986,840; 0,51533
 615,62;12571,825;  316,223;40512,039; 0,51585
 616,20;12546,600;  328,045;40450,391; 0,51637
 616,78;12544,634;  340,163;40455,777; 0,51679
 617,36;12481,098;  313,250;40316,891; 0,51689
 617,94;12405,872;  298,413;39993,602; 0,51568
 618,52;12328,739;  316,710;39775,777; 0,51653
 619,10;12302,912;  310,413;39729,207; 0,51679
 619,67;12261,886;  336,620;39548,621; 0,51695
 620,25;12242,626;  294,345;39558,551; 0,51669
 620,83;12158,974;  342,349;39293,797; 0,51803
 621,41;12172,558;  341,967;39334,578; 0,51798
 621,99;12214,438;  334,842;39444,766; 0,51749
 622,57;12144,331;  316,482;39241,633; 0,51732
 623,15;12238,736;  317,151;39589,309; 0,51775
 623,73;12221,051;  297,936;39630,352; 0,51836
 624,30;12257,830;  319,229;39719,484; 0,51855
 624,88;12163,779;  308,892;39418,344; 0,51838
 625,46;12167,680;  287,449;39491,773; 0,51851
 626,04;12288,569;  338,445;39816,785; 0,51899
 626,62;12262,501;  319,101;39770,898; 0,51894
 627,20;12314,390;  347,512;39916,352; 0,51937
 627,78;12328,613;  323,829;39982,750; 0,51899
 628,35;12352,598;  369,525;39958,555; 0,51901
 628,93;12346,030;  298,776;40187,492; 0,51996
 629,51;12444,420;  340,636;40457,410; 0,52040
 630,09;12368,229;  306,174;40318,043; 0,52077
 630,67;12485,812;  335,580;40651,246; 0,52089
 631,25;12516,740;  334,271;40764,391; 0,52097
 631,82;12578,645;  331,582;41041,664; 0,52167
 632,40;12574,696;  332,740;41070,559; 0,52215
 632,98;12622,937;  322,858;41180,293; 0,52136
 633,56;12685,298;  336,585;41407,766; 0,52192
 634,14;12746,836;  328,623;41658,645; 0,52221
 634,71;12801,756;  329,821;41828,160; 0,52210
 635,29;12809,821;  309,582;41882,195; 0,52189
 635,87;12836,418;  319,399;41937,875; 0,52179
 636,45;12923,408;  345,444;42147,574; 0,52159
 637,03;12954,874;  324,225;42377,664; 0,52238
 637,60;13022,264;  387,676;42442,207; 0,52225
 638,18;12975,291;  322,112;42542,125; 0,52332
 638,76;13009,057;  317,712;42688,344; 0,52356
 639,34;13108,802;  355,373;42919,641; 0,52342
 639,91;13086,025;  342,463;42960,344; 0,52430
 640,49;13086,769;  332,583;42977,680; 0,52422
 641,07;13086,037;  317,446;43053,051; 0,52465
 641,65;13127,536;  323,705;43054,727; 0,52340
 642,22;13104,516;  330,095;42969,789; 0,52347
 642,80;13134,342;  309,574;43106,195; 0,52336
 643,38;13121,710;  294,997;43093,547; 0,52331
 643,96;13190,583;  334,317;43347,492; 0,52449
 644,53;13140,349;  314,966;43184,020; 0,52407
 645,11;13197,768;  333,772;43354,309; 0,52430
 645,69;13232,273;  352,438;43445,477; 0,52450
 646,27;13186,936;  329,755;43364,070; 0,52467
 646,84;13260,475;  343,851;43576,367; 0,52466
 647,42;13165,518;  325,864;43251,027; 0,52416
 648,00;13178,507;  283,483;43358,266; 0,52380
 648,57;13259,272;  312,573;43627,871; 0,52448
 649,15;13267,201;  311,762;43661,477; 0,52453
 649,73;13305,457;  339,455;43789,941; 0,52519
 650,31;13276,883;  310,378;43735,688; 0,52492
 650,88;13292,966;  332,071;43831,801; 0,52585
 651,46;13314,628;  327,577;43935,359; 0,52605
 652,04;13272,157;  292,353;43873,652; 0,52603
 652,61;13371,369;  318,683;44179,199; 0,52637
 653,19;13443,712;  340,782;44350,820; 0,52618
 653,77;13429,888;  308,318;44411,324; 0,52648
 654,34;13506,974;  320,458;44727,211; 0,52732
 654,92;13926,309;  321,574;46571,719; 0,53142
 655,50;17382,219;  313,950;57444,570; 0,52468
 656,07;18907,340;  307,380;60268,895; 0,50836
 656,65;15538,286;  299,769;49930,965; 0,51281
 657,23;14079,266;  460,825;46215,434; 0,52631
 657,80;13842,848;  330,195;45891,578; 0,52786
 658,38;13866,940;  332,308;45956,336; 0,52775
 658,95;13932,883;  329,914;46250,957; 0,52838
 659,53;13953,089;  305,723;46266,742; 0,52734
 660,11;14037,697;  295,209;46640,125; 0,52794
 660,68;14249,163;  364,466;47165,227; 0,52772
 661,26;14349,770;  315,738;47669,266; 0,52817
 661,84;14442,715;  339,481;47928,133; 0,52818
 662,41;14572,674;  304,854;48444,648; 0,52815
 662,99;14669,199;  310,867;48809,129; 0,52862
 663,56;14767,818;  300,030;49197,164; 0,52888
 664,14;14932,857;  305,529;49640,113; 0,52799
 664,72;15026,207;  312,342;49911,949; 0,52775
 665,29;15226,010;  316,532;50538,797; 0,52743
 665,87;15349,188;  316,858;50927,691; 0,52722
 666,44;15433,475;  320,804;51239,988; 0,52754
 667,02;15504,427;  316,233;51415,176; 0,52691
 667,59;15647,626;  297,903;51851,457; 0,52616
 668,17;15751,385;  311,462;52243,398; 0,52679
 668,75;15836,508;  326,259;52469,746; 0,52658
 669,32;15853,350;  328,418;52486,012; 0,52629
 669,90;15883,839;  306,151;52673,059; 0,52655
 670,47;15887,091;  283,951;52748,133; 0,52665
 671,05;15903,091;  315,813;52759,055; 0,52692
 671,62;15876,652;  293,350;52670,484; 0,52648
 672,20;15944,328;  303,629;52915,754; 0,52683
 672,77;15920,051;  325,582;52726,363; 0,52637
 673,35;15893,040;  330,765;52685,742; 0,52688
 673,93;15955,746;  307,001;53014,137; 0,52739
 674,50;15949,315;  317,357;53024,859; 0,52786
 675,08;15969,487;  312,307;53038,137; 0,52731
 675,65;15996,640;  277,426;53216,438; 0,52735
 676,23;16127,886;  323,072;53543,258; 0,52729
 676,80;16208,651;  322,498;53900,023; 0,52796
 677,38;16207,120;  293,385;53868,008; 0,52719
 677,95;16328,710;  320,784;54339,199; 0,52821
 678,53;16468,303;  315,324;54684,531; 0,52710
 679,10;16461,877;  334,090;54514,672; 0,52627
 679,68;16567,707;  304,076;54926,871; 0,52616
 680,25;16764,660;  348,572;55554,227; 0,52671
 680,83;16649,752;  295,945;55138,211; 0,52550
 681,40;16769,521;  335,938;55532,293; 0,52618
 681,98;16682,977;  278,101;55335,977; 0,52585
 682,55;16739,566;  314,640;55580,426; 0,52695
 683,12;16781,715;  304,096;55685,441; 0,52647
 683,70;16821,104;  319,866;55718,035; 0,52598
 684,27;16776,650;  297,935;55712,422; 0,52670
 684,85;16904,998;  320,288;56038,406; 0,52629
 685,42;16900,021;  299,078;55991,926; 0,52567
 686,00;16939,953;  322,617;56050,535; 0,52551
 686,57;17116,350;  327,113;56713,582; 0,52614
 687,15;17074,836;  310,196;56621,039; 0,52620
 687,72;17128,137;  295,796;56781,586; 0,52579
 688,29;17142,303;  308,812;56715,680; 0,52516
 688,87;17178,260;  313,068;56937,207; 0,52601
 689,44;17217,531;  277,837;56983,203; 0,52472
 690,02;17329,646;  311,190;57270,969; 0,52465
 690,59;17348,850;  317,683;57420,836; 0,52542
 691,17;17426,516;  310,463;57627,164; 0,52488
 691,74;17518,314;  318,976;57871,406; 0,52455
 692,31;17544,473;  299,322;57852,164; 0,52340
 692,89;17600,920;  289,585;58121,703; 0,52384
 693,46;17749,582;  300,031;58590,320; 0,52381
 694,04;17755,594;  306,357;58540,563; 0,52340
 694,61;17830,344;  325,723;58794,379; 0,52377
 695,18;17896,133;  301,256;59028,563; 0,52345
 695,76;17929,559;  315,192;59022,719; 0,52283
 696,33;18004,385;  307,038;59281,770; 0,52276
 696,90;18118,754;  312,088;59613,645; 0,52248
 697,48;18136,232;  303,791;59606,820; 0,52187
 698,05;18200,852;  291,743;59763,484; 0,52124
 698,62;18270,131;  327,446;60044,328; 0,52221
 699,20;18313,250;  299,856;60113,863; 0,52121
 699,77;18403,932;  314,795;60333,434; 0,52087
 700,35;18417,115;  292,728;60468,285; 0,52116
 700,92;18414,291;  317,694;60292,422; 0,52037
 701,49;18516,285;  311,787;60598,523; 0,52004
 702,07;18622,654;  335,063;60971,645; 0,52058
 702,64;18598,078;  296,679;60882,664; 0,51989
 703,21;18644,930;  330,262;60962,133; 0,51990
 703,78;18696,770;  326,505;61124,387; 0,51977
 704,36;18693,625;  325,258;61058,793; 0,51936
 704,93;18740,027;  308,884;61206,875; 0,51905
 705,50;18725,980;  289,800;61101,320; 0,51831
 706,08;18837,936;  300,853;61521,926; 0,51886
 706,65;18894,061;  326,393;61438,508; 0,51737
 707,22;18997,770;  324,602;61828,801; 0,51769
 707,80;19008,217;  330,628;61867,340; 0,51781
 708,37;18958,762;  313,505;61605,164; 0,51683
 708,94;18883,078;  308,571;61356,707; 0,51676
 709,51;19009,150;  306,300;61705,441; 0,51625
 710,09;19070,010;  323,966;61762,090; 0,51553
 710,66;19083,516;  316,193;61914,949; 0,51617
 711,23;19129,857;  328,865;62005,336; 0,51594
 711,81;19144,936;  314,325;61964,410; 0,51507
 712,38;19129,385;  292,038;62005,492; 0,51536
 712,95;19271,527;  327,621;62353,750; 0,51511
 713,52;19270,830;  327,043;62318,785; 0,51487
 714,10;19253,750;  312,710;62218,641; 0,51433
 714,67;19350,734;  331,232;62476,828; 0,51421
 715,24;19300,693;  323,915;62402,285; 0,51472
 715,81;19214,250;  287,431;62018,852; 0,51343
 716,38;19366,732;  307,131;62531,781; 0,51385
 716,96;19413,459;  318,920;62580,766; 0,51331
 717,53;19404,328;  304,943;62558,520; 0,51314
 718,10;19475,025;  323,469;62643,547; 0,51242
 718,67;19472,699;  330,276;62472,113; 0,51139
 719,25;19599,514;  298,375;62944,988; 0,51131
 719,82;19570,416;  377,228;62808,266; 0,51225
 720,39;19467,713;  303,241;62398,375; 0,51056
 720,96;19646,498;  296,244;62881,996; 0,50979
 721,53;19585,818;  299,480;62650,535; 0,50959
 722,11;19608,244;  281,389;62742,840; 0,50945
 722,68;19651,021;  327,785;62705,746; 0,50895
 723,25;19734,225;  307,952;63116,324; 0,50963
 723,82;19831,980;  331,174;63303,469; 0,50910
 724,39;19814,520;  316,807;63204,863; 0,50858
 724,96;19959,855;  305,220;63551,828; 0,50757
 725,54;19955,627;  321,836;63525,164; 0,50774
 726,11;19953,570;  291,179;63470,418; 0,50694
 726,68;19956,592;  288,705;63350,008; 0,50601
 727,25;20033,582;  297,305;63504,883; 0,50550
 727,82;19967,012;  289,544;63162,441; 0,50449
 728,39;20111,594;  299,681;63499,219; 0,50379
 728,96;20209,863;  299,283;63776,574; 0,50353
 729,54;20260,148;  300,103;63968,535; 0,50376
 730,11;20290,721;  337,509;64052,082; 0,50423
 730,68;20310,850;  285,535;63979,152; 0,50252
 731,25;20317,861;  318,545;63756,156; 0,50133
 731,82;20462,701;  318,208;64444,973; 0,50288
 732,39;20442,650;  268,700;64245,633; 0,50123
 732,96;20481,387;  307,720;64394,926; 0,50199
 733,53;20463,328;  295,169;64226,301; 0,50105
 734,10;20643,178;  314,159;64681,398; 0,50055
 734,68;20640,986;  308,575;64579,781; 0,49983
 735,25;20618,332;  290,588;64659,172; 0,50058
 735,82;20631,762;  296,231;64426,020; 0,49880
 736,39;20759,471;  324,217;64790,184; 0,49895
 736,96;20711,164;  289,826;64522,348; 0,49767
 737,53;20799,248;  332,999;64684,570; 0,49752
 738,10;20746,111;  286,965;64524,641; 0,49690
 738,67;20774,221;  313,768;64547,660; 0,49685
 739,24;20823,020;  318,754;64647,926; 0,49656
 739,81;20739,742;  286,317;64246,738; 0,49515
 740,38;20628,240;  265,693;63894,938; 0,49482
 740,95;20706,688;  313,810;64094,309; 0,49521
 741,52;20761,520;  294,572;64138,941; 0,49407
 742,09;20582,021;  335,325;63400,000; 0,49343
 742,66;20711,117;  287,955;63930,457; 0,49362
 743,23;20669,369;  325,504;63861,508; 0,49459
 743,80;20747,822;  321,287;63920,262; 0,49326
 744,37;20614,195;  306,657;63629,094; 0,49390
 744,94;20562,848;  312,923;63506,762; 0,49425
 745,51;20594,783;  293,406;63430,633; 0,49276
 746,09;20664,992;  343,325;63432,191; 0,49199
 746,66;20429,705;  311,835;62717,250; 0,49164
 747,23;20543,830;  367,531;63029,645; 0,49216
 747,80;20432,467;  301,000;62722,141; 0,49146
 748,36;20296,318;  299,373;62309,301; 0,49150
 748,93;20363,697;  285,269;62515,016; 0,49127
 749,50;20362,297;  330,052;62509,871; 0,49192
 750,07;20358,926;  315,115;62458,895; 0,49142
 750,64;20283,111;  299,761;62287,793; 0,49164
 751,21;20165,434;  322,134;61758,969; 0,49081
 751,78;20163,246;  316,247;61843,027; 0,49137
 752,35;20139,166;  316,670;61687,902; 0,49081
 752,92;20079,809;  313,349;61531,895; 0,49095
 753,49;20070,254;  395,979;61249,926; 0,49039
 754,06;20011,822;  324,078;61286,328; 0,49087
 754,63;20056,898;  336,594;61323,238; 0,49032
 755,20;19852,602;  294,201;60628,602; 0,48923
 755,77;19998,920;  350,320;61044,719; 0,48982
 756,34;19957,742;  323,436;60891,141; 0,48923
 756,91;19819,064;  299,796;60502,496; 0,48915
 757,48;19914,498;  302,325;60617,301; 0,48790
 758,05;19889,334;  342,878;60616,121; 0,48906
 758,62;19685,129;  301,748;59962,781; 0,48826
 759,19;19752,094;  342,804;60078,652; 0,48823
 759,75;19691,750;  293,597;59875,891; 0,48736
 760,32;19668,889;  310,073;59687,145; 0,48674
 760,89;19580,383;  312,382;59418,660; 0,48680
 761,46;19475,521;  325,175;59138,051; 0,48730
 762,03;19490,230;  318,215;59301,371; 0,48806
 762,60;19407,539;  299,471;59012,582; 0,48752
 763,17;19428,492;  313,260;59051,059; 0,48754
 763,74;19464,215;  318,523;59026,262; 0,48662
 764,31;19383,316;  290,586;58810,379; 0,48643
 764,87;19430,795;  307,496;58805,121; 0,48558
 765,44;19326,561;  300,535;58436,098; 0,48509
 766,01;19237,834;  317,691;58118,613; 0,48501
 766,58;19396,410;  425,667;58303,934; 0,48443
 767,15;19220,770;  321,290;57853,297; 0,48346
 767,72;19191,264;  299,160;57847,125; 0,48375
 768,28;19210,174;  315,279;57838,043; 0,48350
 768,85;19237,152;  311,225;57804,789; 0,48256
 769,42;19188,285;  309,198;57498,457; 0,48133
 769,99;19059,164;  266,828;57202,051; 0,48140
 770,56;19180,063;  308,844;57456,320; 0,48120
 771,13;19096,596;  303,447;57146,938; 0,48068
 771,69;19062,195;  294,733;57023,488; 0,48040
 772,26;19053,400;  290,979;56930,391; 0,47983
 772,83;19008,996;  289,812;56740,016; 0,47938
 773,40;19006,916;  300,031;56754,953; 0,47970
 773,97;18989,398;  321,824;56645,035; 0,47960
 774,53;18945,967;  314,214;56500,926; 0,47938
 775,10;18869,803;  294,720;56314,457; 0,47941
 775,67;18917,162;  311,183;56417,555; 0,47936
 776,24;18893,533;  324,866;56272,063; 0,47900
 776,81;18781,813;  296,098;56015,332; 0,47917
 777,37;18804,426;  294,718;56125,988; 0,47948
 777,94;18784,201;  286,967;55903,113; 0,47809
 778,51;18799,977;  318,080;55942,879; 0,47852
 779,08;18716,254;  330,286;55651,563; 0,47841
 779,64;18691,859;  284,849;55593,563; 0,47781
 780,21;18773,400;  326,649;55734,867; 0,47765
 780,78;18747,895;  304,198;55697,520; 0,47761
 781,35;18695,133;  302,508;55430,723; 0,47673
 781,91;18646,635;  282,697;55245,191; 0,47610
 782,48;18631,297;  291,540;55172,008; 0,47602
 783,05;18509,744;  294,483;54661,047; 0,47490
 783,62;18521,176;  316,959;54645,105; 0,47485
 784,18;18482,055;  309,535;54466,676; 0,47424
 784,75;18379,174;  297,952;54159,391; 0,47405
 785,32;18387,684;  315,954;54133,324; 0,47392
 785,88;18319,535;  296,394;53863,848; 0,47307
 786,45;18351,178;  330,633;53940,609; 0,47348
 787,02;18290,736;  286,043;53828,840; 0,47332
 787,58;18265,846;  339,116;53631,488; 0,47316
 788,15;18128,408;  325,032;53241,086; 0,47309
 788,72;18000,865;  300,505;52868,504; 0,47274
 789,29;17962,188;  291,204;52758,941; 0,47263
 789,85;17912,580;  316,500;52526,379; 0,47234
 790,42;17824,334;  300,100;52300,992; 0,47237
 790,99;17794,871;  332,619;52053,645; 0,47157
 791,55;17695,887;  307,239;51812,156; 0,47158
 792,12;17602,629;  307,578;51564,309; 0,47183
 792,69;17521,422;  323,698;51247,180; 0,47145
 793,25;17462,697;  297,541;51005,109; 0,47043
 793,82;17503,750;  330,087;51047,500; 0,47029
 794,38;17390,928;  281,243;50766,188; 0,46992
 794,95;17266,523;  311,536;50358,746; 0,47008
 795,52;17146,916;  302,542;49915,789; 0,46914
 796,08;17065,545;  295,108;49663,688; 0,46891
 796,65;16966,295;  336,981;49246,875; 0,46852
 797,22;16912,102;  285,934;49103,797; 0,46779
 797,78;16806,863;  310,187;48690,797; 0,46727
 798,35;16745,510;  320,543;48505,617; 0,46741
 798,91;16717,371;  336,272;48303,512; 0,46660
 799,48;16633,414;  323,579;48135,617; 0,46709
 800,05;16513,410;  304,558;47800,164; 0,46690
 800,61;16389,822;  311,774;47427,004; 0,46693
 801,18;16367,312;  325,977;47309,113; 0,46670
 801,74;16228,697;  326,350;46846,953; 0,46618
 802,31;16173,433;  336,183;46716,785; 0,46666
 802,88;16037,805;  308,802;46326,848; 0,46623
 803,44;16023,871;  321,415;46187,004; 0,46552
 804,01;15954,153;  315,745;45997,039; 0,46555
 804,57;15869,865;  320,844;45672,934; 0,46489
 805,14;15793,448;  311,717;45472,922; 0,46495
 805,70;15699,900;  326,073;45106,684; 0,46431
 806,27;15702,149;  298,593;45083,895; 0,46351
 806,83;15618,855;  325,882;44761,727; 0,46324
 807,40;15488,888;  307,358;44412,215; 0,46317
 807,96;15582,813;  397,191;44449,367; 0,46253
 808,53;15474,416;  298,201;44322,324; 0,46253
 809,10;15420,688;  319,820;44173,082; 0,46300
 809,66;15399,454;  322,380;44066,234; 0,46260
 810,23;15339,680;  358,999;43758,402; 0,46195
 810,79;15312,516;  323,782;43689,832; 0,46138
 811,36;15259,191;  310,285;43531,344; 0,46109
 811,92;15359,297;  319,544;43705,250; 0,46011
 812,49;15281,140;  294,841;43474,938; 0,45959
 813,05;15332,629;  333,493;43582,422; 0,45991
 813,62;15286,208;  315,176;43412,680; 0,45920
 814,18;15254,237;  332,002;43183,230; 0,45813
 814,75;15142,800;  314,925;42901,285; 0,45819
 815,31;15203,215;  355,635;42955,973; 0,45776
 815,87;15163,768;  350,794;42885,309; 0,45810
 816,44;15042,007;  315,810;42549,320; 0,45757
 817,00;15004,666;  303,363;42329,133; 0,45616
 817,57;14965,929;  324,169;42253,355; 0,45692
 818,13;14802,291;  324,656;41770,871; 0,45679
 818,70;14741,246;  348,135;41565,949; 0,45693
 819,26;14802,695;  379,891;41562,035; 0,45566
 819,83;14719,428;  343,678;41415,488; 0,45591
 820,39;14687,844;  347,317;41334,035; 0,45608
 820,95;14607,486;  322,510;41081,191; 0,45534
 821,52;14495,372;  315,366;40740,387; 0,45497
 822,08;14510,357;  334,492;40737,992; 0,45487
 822,65;14457,240;  329,988;40596,523; 0,45489
 823,21;14352,162;  317,251;40203,523; 0,45361
 823,78;14448,505;  356,007;40438,852; 0,45397
 824,34;14359,230;  307,374;40183,773; 0,45298
 824,90;14431,070;  365,286;40291,438; 0,45309
 825,47;14358,042;  347,563;40073,594; 0,45262
 826,03;14310,175;  319,152;39918,398; 0,45184
 826,60;14230,147;  306,715;39686,176; 0,45152
 827,16;14334,500;  351,624;39908,438; 0,45162
 827,72;14310,495;  334,517;39787,492; 0,45070
 828,29;14157,737;  304,930;39437,758; 0,45100
 828,85;14251,380;  321,210;39617,621; 0,45040
 829,41;14164,103;  315,806;39406,234; 0,45067
 829,98;14216,592;  341,352;39448,457; 0,45002
 830,54;14185,440;  323,148;39348,680; 0,44951
 831,10;14156,816;  323,168;39261,637; 0,44944
 831,67;14183,189;  351,097;39286,512; 0,44946
 832,23;14174,878;  336,750;39184,047; 0,44828
 832,79;14120,830;  345,636;39022,223; 0,44835
 833,36;14139,256;  342,219;39036,254; 0,44786
 833,92;14113,188;  336,142;38925,148; 0,44731
 834,48;14068,878;  301,575;38779,023; 0,44636
 835,05;14084,264;  328,304;38773,152; 0,44635
 835,61;14113,666;  323,150;38816,496; 0,44581
 836,17;14113,422;  325,660;38845,570; 0,44619
 836,74;14118,491;  328,649;38814,098; 0,44574
 837,30;14075,440;  322,926;38637,809; 0,44499
 837,86;14052,216;  318,565;38512,160; 0,44420
 838,43;13988,895;  305,841;38363,832; 0,44426
 838,99;14049,860;  318,417;38441,797; 0,44348
 839,55;14022,393;  299,417;38408,387; 0,44358
 840,11;14018,155;  321,033;38362,875; 0,44363
 840,68;13992,244;  336,363;38269,094; 0,44369
 841,24;13923,200;  285,552;38122,633; 0,44318
 841,80;13918,606;  320,108;37978,410; 0,44237
 842,36;13963,458;  321,694;38083,344; 0,44218
 842,93;13967,811;  319,411;38053,176; 0,44165
 843,49;13976,724;  366,913;37923,219; 0,44083
 844,05;13924,886;  305,716;37885,328; 0,44080
 844,61;13886,212;  314,599;37720,914; 0,44031
 845,18;13825,667;  301,592;37579,570; 0,44034
 845,74;13835,739;  284,378;37592,324; 0,43982
 846,30;13860,063;  337,548;37492,375; 0,43896
 846,86;13804,512;  321,694;37375,344; 0,43905
 847,43;13821,351;  321,333;37395,883; 0,43874
 847,99;13718,319;  309,936;37079,863; 0,43812
 848,55;13733,625;  312,666;37081,375; 0,43769
 849,11;13742,487;  320,285;37038,496; 0,43706
 849,67;13696,967;  300,368;36913,082; 0,43664
 850,24;13647,879;  301,304;36744,723; 0,43625
 850,80;13590,741;  286,930;36617,105; 0,43629
 851,36;13691,324;  347,116;36743,574; 0,43577
 851,92;13609,653;  314,449;36580,047; 0,43580
 852,48;13581,742;  305,809;36449,813; 0,43497
 853,04;13563,585;  328,915;36354,129; 0,43489
 853,61;13546,634;  318,231;36297,203; 0,43454
 854,17;13596,810;  400,897;36161,066; 0,43296
 854,73;13466,932;  299,187;36036,578; 0,43361
 855,29;13440,435;  312,773;35881,414; 0,43288
 855,85;13381,533;  302,419;35707,727; 0,43249
 856,41;13351,355;  292,769;35638,445; 0,43244
 856,97;13393,042;  304,102;35680,738; 0,43181
 857,54;13316,404;  295,658;35460,859; 0,43148
 858,10;13332,974;  333,714;35406,227; 0,43105
 858,66;13247,582;  308,520;35188,742; 0,43068
 859,22;13282,708;  324,280;35154,438; 0,42940
 859,78;13184,021;  298,046;34900,406; 0,42899
 860,34;13179,426;  301,792;34857,613; 0,42869
 860,90;13223,182;  338,488;34910,375; 0,42865
 861,46;13132,671;  295,754;34708,359; 0,42826
 862,02;13100,580;  317,067;34529,262; 0,42753
 862,59;13024,520;  310,633;34362,523; 0,42786
 863,15;12991,952;  293,426;34337,504; 0,42829
 863,71;12995,101;  280,842;34332,258; 0,42784
 864,27;13101,644;  374,218;34430,199; 0,42745
 864,83;12907,615;  311,931;34005,742; 0,42733
 865,39;12970,295;  339,177;34049,379; 0,42632
 865,95;12891,134;  316,807;33897,254; 0,42660
 866,51;12865,473;  305,200;33828,723; 0,42635
 867,07;12815,398;  312,336;33668,098; 0,42615
 867,63;12768,944;  317,432;33554,676; 0,42640
 868,19;12779,014;  289,338;33597,973; 0,42601
 868,75;12745,192;  301,998;33463,352; 0,42570
 869,31;12797,555;  329,777;33494,523; 0,42489
 869,87;12743,384;  316,560;33335,813; 0,42441
 870,43;12760,330;  356,853;33308,383; 0,42433
 870,99;12708,599;  315,452;33220,332; 0,42408
 871,55;12655,508;  312,249;33108,828; 0,42440
 872,11;12673,824;  316,338;33088,535; 0,42358
 872,67;12700,993;  352,711;33102,332; 0,42360
 873,23;12644,836;  299,347;33061,512; 0,42386
 873,79;12698,751;  354,573;32991,648; 0,42225
 874,35;12672,707;  347,159;32961,270; 0,42260
 874,91;12543,577;  297,263;32650,561; 0,42191
 875,47;12529,380;  288,816;32585,131; 0,42135
 876,03;12595,407;  327,973;32714,684; 0,42161
 876,59;12582,297;  322,643;32636,449; 0,42091
 877,15;12607,710;  324,030;32647,736; 0,42019
 877,71;12679,714;  322,240;32759,000; 0,41911
 878,27;12654,244;  281,653;32754,273; 0,41906
 878,83;12754,150;  319,673;32887,520; 0,41816
 879,39;12706,264;  297,736;32804,969; 0,41826
 879,95;12825,710;  321,370;33038,867; 0,41772
 880,51;12868,507;  341,356;33096,695; 0,41743
 881,07;12893,801;  333,153;33095,410; 0,41636
 881,63;12883,004;  288,909;33150,910; 0,41653
 882,19;12986,657;  316,446;33393,605; 0,41674
 882,75;13057,730;  335,680;33501,969; 0,41614
 883,31;13112,397;  318,500;33617,559; 0,41543
 883,87;13117,351;  293,793;33670,785; 0,41544
 884,42;13261,334;  309,203;33887,332; 0,41372
 884,98;13284,787;  280,210;33974,578; 0,41346
 885,54;13384,061;  323,803;34173,340; 0,41360
 886,10;13443,420;  336,520;34298,176; 0,41349
 886,66;13485,240;  316,866;34411,715; 0,41316
 887,22;13520,707;  328,759;34458,691; 0,41283
 887,78;13539,641;  331,806;34497,457; 0,41276
 888,34;13511,417;  305,816;34449,758; 0,41256
 888,89;13529,917;  302,503;34459,141; 0,41200
 889,45;13581,394;  352,143;34489,418; 0,41169
 890,01;13494,170;  315,263;34238,980; 0,41062
 890,57;13414,830;  295,553;34111,547; 0,41121
 891,13;13384,184;  315,993;33997,707; 0,41118
 891,69;13289,714;  305,879;33767,906; 0,41115
 892,25;13224,210;  313,553;33556,363; 0,41075
 892,80;13165,860;  318,526;33397,730; 0,41074
 893,36;13080,127;  326,720;33125,590; 0,41023
 893,92;12991,857;  335,283;32913,453; 0,41061
 894,48;12902,960;  319,859;32666,150; 0,41004
 895,04;12895,334;  323,796;32588,756; 0,40934
 895,60;12842,863;  354,773;32343,150; 0,40850
 896,15;12730,777;  315,370;32119,750; 0,40853
 896,71;12670,594;  349,406;31854,127; 0,40772
 897,27;12581,780;  325,453;31667,689; 0,40777
 897,83;12559,360;  337,246;31560,869; 0,40734
 898,39;12457,030;  330,226;31269,174; 0,40676
 898,94;12483,644;  352,626;31297,063; 0,40669
 899,50;12292,030;  287,546;30850,461; 0,40585
 900,06;12243,797;  292,363;30727,797; 0,40596
 900,62;12273,613;  322,500;30739,631; 0,40571
 901,17;12300,120;  320,186;30802,000; 0,40559
 901,73;12179,957;  295,453;30432,104; 0,40411
 902,29;12148,091;  321,456;30364,086; 0,40488
 902,85;12114,311;  321,973;30208,764; 0,40388
 903,40;12136,014;  392,953;30099,547; 0,40307
 903,96;12066,607;  335,000;30043,344; 0,40352
 904,52;11985,204;  328,823;29813,859; 0,40304
 905,08;11906,761;  307,183;29644,199; 0,40297
 905,63;11952,597;  337,750;29683,807; 0,40254
 906,19;11940,997;  341,419;29614,199; 0,40202
 906,75;11869,230;  315,976;29437,990; 0,40152
 907,30;11842,097;  322,819;29329,543; 0,40107
 907,86;11805,137;  339,146;29184,607; 0,40067
 908,42;11777,561;  363,153;29041,650; 0,40010
 908,98;11735,157;  329,620;29019,066; 0,40061
 909,53;11685,681;  313,676;28824,916; 0,39918
 910,09;11701,667;  352,446;28805,350; 0,39916
 910,65;11683,174;  320,183;28725,104; 0,39790
 911,20;11612,160;  315,103;28542,783; 0,39771
 911,76;11608,187;  321,103;28519,920; 0,39765
 912,32;11620,097;  352,133;28480,619; 0,39730
 912,87;11537,573;  334,750;28316,291; 0,39754
 913,43;11475,334;  325,569;28157,490; 0,39728
 913,99;11485,323;  332,426;28124,311; 0,39653
 914,54;11428,227;  333,346;27947,199; 0,39600
 915,10;11442,521;  344,863;27948,434; 0,39573
 915,66;11368,054;  333,843;27772,287; 0,39562
 916,21;11417,380;  358,893;27821,607; 0,39505
 916,77;11333,144;  329,266;27647,113; 0,39490
 917,32;11289,017;  342,020;27506,791; 0,39471
 917,88;11214,954;  314,479;27318,801; 0,39399
 918,44;11223,931;  330,539;27283,377; 0,39344
 918,99;11158,827;  350,903;27115,893; 0,39382
 919,55;11120,563;  330,373;27002,000; 0,39302
 920,10;11087,297;  329,690;26937,877; 0,39330
 920,66;11079,700;  335,120;26853,430; 0,39236
 921,22;10926,544;  293,323;26517,900; 0,39204
 921,77;11037,733;  339,780;26720,053; 0,39198
 922,33;10914,297;  322,516;26438,211; 0,39193
 922,88;10925,547;  326,373;26443,873; 0,39166
 923,44;10851,684;  339,389;26272,783; 0,39216
 924,00;10877,737;  360,833;26269,199; 0,39155
 924,55;10779,120;  310,946;26086,520; 0,39134
 925,11;10790,057;  327,656;26085,363; 0,39128
 925,66;10738,964;  330,030;25899,340; 0,39031
 926,22;10691,517;  315,150;25805,840; 0,39034
 926,77;10721,137;  342,913;25787,227; 0,38947
 927,33;10658,063;  326,976;25647,494; 0,38933
 927,88;10586,394;  324,806;25408,188; 0,38817
 928,44;10592,084;  308,036;25442,143; 0,38810
 928,99;10553,554;  322,900;25342,744; 0,38838
 929,55;10581,533;  365,373;25320,967; 0,38788
 930,10;10481,124;  333,683;25134,137; 0,38810
 930,66;10495,717;  349,669;25150,053; 0,38816
 931,21;10444,494;  330,066;25002,613; 0,38727
 931,77;10368,341;  331,843;24813,777; 0,38726
 932,32;10349,344;  311,293;24737,750; 0,38621
 932,88;10361,783;  331,919;24742,340; 0,38628
 933,43;10344,357;  354,546;24600,811; 0,38509
 933,99;10275,214;  317,446;24447,779; 0,38440
 934,54;10248,247;  356,553;24343,576; 0,38471
 935,10;10179,860;  325,620;24237,484; 0,38499
 935,65;10171,193;  317,573;24160,721; 0,38377
 936,21;10123,591;  302,919;24081,447; 0,38404
 936,76;10129,737;  357,750;24023,211; 0,38413
 937,32;10080,830;  316,490;23926,971; 0,38346
 937,87;10076,250;  367,013;23831,037; 0,38322
 938,43;10060,467;  337,379;23809,449; 0,38275
 938,98;10026,184;  346,606;23696,680; 0,38243
 939,53; 9898,044;  307,536;23426,150; 0,38212
 940,09; 9969,914;  364,039;23507,891; 0,38190
 940,64; 9862,804;  330,086;23288,033; 0,38172
 941,20; 9865,880;  327,520;23265,367; 0,38108
 941,75; 9831,110;  335,949;23133,123; 0,38038
 942,30; 9801,870;  326,609;23077,324; 0,38040
 942,86; 9715,307;  316,020;22871,221; 0,38015
 943,41; 9741,664;  323,383;22878,430; 0,37927
 943,97; 9697,134;  328,923;22731,424; 0,37864
 944,52; 9705,137;  349,120;22719,500; 0,37858
 945,07; 9674,067;  328,856;22631,084; 0,37776
 945,63; 9649,447;  361,253;22525,557; 0,37772
 946,18; 9591,120;  313,329;22422,061; 0,37712
 946,74; 9547,073;  329,896;22316,307; 0,37756
 947,29; 9540,360;  345,383;22262,164; 0,37723
 947,84; 9530,617;  345,463;22238,930; 0,37723
 948,40; 9509,567;  354,283;22138,906; 0,37648
 948,95; 9474,500;  374,699;21994,311; 0,37582
 949,50; 9401,380;  320,853;21901,193; 0,37595
 950,06; 9363,817;  315,343;21798,094; 0,37551
 950,61; 9335,934;  317,013;21674,791; 0,37440
 951,16; 9355,844;  341,699;21696,354; 0,37457
 951,72; 9315,884;  328,953;21590,311; 0,37398
 952,27; 9272,157;  316,356;21540,957; 0,37474
 952,82; 9217,563;  341,856;21377,557; 0,37475
 953,38; 9222,641;  347,293;21349,006; 0,37407
 953,93; 9129,327;  316,866;21156,010; 0,37378
 954,48; 9088,044;  304,520;21099,574; 0,37429
 955,03; 9075,297;  320,563;21010,557; 0,37352
 955,59; 9053,264;  337,883;20933,357; 0,37349
 956,14; 9012,801;  324,349;20850,250; 0,37336
 956,69; 8964,233;  313,336;20693,604; 0,37215
 957,24; 8944,647;  324,863;20621,277; 0,37192
 957,80; 8934,724;  332,193;20558,971; 0,37130
 958,35; 8893,407;  345,060;20392,063; 0,37017
 958,90; 8852,964;  328,349;20320,246; 0,37018
 959,46; 8838,724;  314,813;20244,896; 0,36887
 960,01; 8792,147;  321,210;20149,254; 0,36935
 960,56; 8741,684;  311,023;20028,123; 0,36898
 961,11; 8736,011;  341,780;19956,270; 0,36860
 961,66; 8660,374;  297,353;19813,641; 0,36803
 962,22; 8687,307;  327,990;19812,863; 0,36753
 962,77; 8636,910;  332,829;19671,803; 0,36714
 963,32; 8537,040;  307,109;19447,703; 0,36656
 963,87; 8568,637;  324,520;19473,566; 0,36600
 964,43; 8508,773;  314,126;19302,424; 0,36496
 964,98; 8554,124;  368,533;19323,627; 0,36468
 965,53; 8420,027;  307,970;19081,119; 0,36441
 966,08; 8454,647;  346,866;19087,438; 0,36388
 966,63; 8355,757;  328,900;18904,447; 0,36440
 967,18; 8334,174;  326,566;18860,768; 0,36447
 967,74; 8282,507;  338,280;18698,416; 0,36382
 968,29; 8224,573;  312,139;18552,326; 0,36272
 968,84; 8187,667;  312,696;18491,916; 0,36333
 969,39; 8084,541;  309,376;18249,277; 0,36311
 969,94; 8079,474;  331,393;18220,383; 0,36339
 970,49; 8069,884;  334,493;18175,291; 0,36293
 971,05; 8004,500;  325,690;18011,246; 0,36232
 971,60; 7947,284;  334,683;17874,477; 0,36249
 972,15; 7888,217;  320,906;17710,006; 0,36134
 972,70; 7911,324;  361,250;17720,066; 0,36157
 973,25; 7819,583;  335,423;17528,996; 0,36122
 973,80; 7786,857;  341,199;17446,477; 0,36123
 974,35; 7716,100;  313,656;17294,844; 0,36059
 974,90; 7682,837;  325,913;17165,637; 0,35964
 975,46; 7645,004;  335,093;17083,080; 0,36005
 976,01; 7608,000;  340,206;17021,221; 0,36082
 976,56; 7559,920;  336,873;16863,770; 0,35947
 977,11; 7455,827;  319,639;16673,439; 0,36015
 977,66; 7364,333;  311,886;16437,311; 0,35917
 978,21; 7384,097;  338,949;16425,244; 0,35857
 978,76; 7323,877;  315,729;16309,356; 0,35834
 979,31; 7281,424;  341,560;16166,604; 0,35799
 979,86; 7212,510;  321,590;16027,063; 0,35777
 980,41; 7189,293;  339,889;15936,970; 0,35739
 980,96; 7061,637;  308,419;15667,900; 0,35687
 981,51; 7095,950;  354,233;15650,816; 0,35582
 982,06; 7042,050;  320,483;15544,354; 0,35505
 982,61; 7013,160;  368,573;15415,583; 0,35498
 983,16; 6921,664;  337,389;15246,920; 0,35496
 983,72; 6866,594;  340,720;15110,470; 0,35473
 984,27; 6814,390;  352,810;15016,460; 0,35590
 984,82; 6762,054;  332,116;14886,377; 0,35478
 985,37; 6687,450;  331,829;14730,396; 0,35516
 985,92; 6627,464;  323,743;14573,066; 0,35420
 986,47; 6569,094;  326,916;14444,174; 0,35441
 987,02; 6561,937;  363,246;14357,077; 0,35364
 987,57; 6460,804;  334,663;14161,747; 0,35354
 988,12; 6408,704;  326,046;14052,720; 0,35347
 988,67; 6393,767;  344,076;13970,917; 0,35266
 989,22; 6335,127;  343,116;13840,757; 0,35269
 989,76; 6285,777;  342,810;13735,253; 0,35286
 990,31; 6250,400;  357,053;13610,970; 0,35198
 990,86; 6168,807;  331,393;13473,486; 0,35244
 991,41; 6120,587;  334,376;13362,050; 0,35247
 991,96; 6078,590;  340,823;13218,177; 0,35108
 992,51; 6050,967;  365,150;13122,137; 0,35096
 993,06; 6013,844;  376,736;13025,747; 0,35100
 993,61; 5978,297;  391,900;12917,964; 0,35068
 994,16; 5896,980;  366,063;12740,100; 0,34971
 994,71; 5804,947;  336,563;12554,187; 0,34913
 995,26; 5794,944;  356,479;12483,227; 0,34827
 995,81; 5807,340;  411,453;12431,280; 0,34784
 996,36; 5692,760;  336,840;12250,800; 0,34722
 996,91; 5660,820;  383,083;12125,714; 0,34732
 997,46; 5664,447;  416,060;12074,117; 0,34660
 998,00; 5529,817;  351,789;11870,943; 0,34726
 998,55; 5504,057;  362,436;11794,634; 0,34703
 999,10; 5422,324;  335,819;11633,977; 0,34659
 999,65; 5402,137;  357,443;11553,483; 0,34623
1000,20; 5382,454;  388,166;11491,830; 0,34699
1000,75; 5391,541;  427,319;11418,377; 0,34519
1001,30; 5243,640;  354,716;11218,967; 0,34679
1001,85; 5211,030;  358,786;11119,483; 0,34590
1002,39; 5188,917;  379,113;11021,630; 0,34492
1002,94; 5094,157;  338,780;10859,420; 0,34486
1003,49; 5087,367;  365,256;10797,493; 0,34424
1004,04; 5073,387;  387,306;10738,090; 0,34416
1004,59; 5043,904;  415,506;10605,120; 0,34273
1005,14; 4935,273;  364,629;10427,347; 0,34274
1005,68; 4886,271;  355,613;10330,743; 0,34276
1006,23; 4845,144;  361,889;10233,000; 0,34277
1006,78; 4822,434;  368,796;10152,743; 0,34180
1007,33; 4756,557;  348,536;10034,720; 0,34191
1007,88; 4719,557;  358,353; 9932,217; 0,34148
1008,42; 4715,377;  383,746; 9875,250; 0,34068
1008,97; 4661,207;  363,986; 9764,117; 0,33995
1009,52; 4607,550;  357,970; 9674,340; 0,34090
1010,07; 4547,807;  335,506; 9567,073; 0,34076
1010,62; 4512,094;  347,163; 9471,924; 0,34061
1011,16; 4503,380;  363,590; 9415,930; 0,33978
1011,71; 4463,650;  352,223; 9345,510; 0,33993
1012,26; 4459,407;  389,313; 9282,820; 0,33947
1012,81; 4413,640;  366,883; 9203,290; 0,33917
1013,35; 4424,320;  382,616; 9200,693; 0,33881
1013,90; 4371,354;  364,389; 9102,137; 0,33858
1014,45; 4314,874;  335,509; 9002,356; 0,33805
1015,00; 4299,541;  350,053; 8929,097; 0,33690
1015,54; 4280,880;  358,333; 8864,333; 0,33616
1016,09; 4204,467;  333,803; 8738,930; 0,33676
1016,64; 4150,697;  330,663; 8596,644; 0,33523
1017,19; 4078,064;  317,963; 8462,384; 0,33566
1017,73; 4089,474;  383,216; 8394,490; 0,33477
1018,28; 3980,090;  347,166; 8180,037; 0,33366
1018,83; 3934,197;  358,283; 8042,693; 0,33222
1019,37; 3842,230;  333,733; 7885,047; 0,33290
1019,92; 3817,810;  361,786; 7791,400; 0,33239
1020,47; 3747,394;  352,613; 7663,210; 0,33314
1021,01; 3696,607;  340,866; 7571,914; 0,33341
1021,56; 3618,330;  316,960; 7420,100; 0,33276
1022,11; 3630,847;  344,176; 7412,487; 0,33256
1022,65; 3736,637;  492,306; 7422,330; 0,32961
1023,20; 3577,287;  376,536; 7246,720; 0,33172
1023,75; 3512,000;  358,120; 7138,394; 0,33240
1024,29; 3457,310;  340,039; 7031,867; 0,33177
1024,84; 3427,844;  354,376; 6948,097; 0,33150
1025,39; 3437,447;  389,063; 6918,900; 0,33083
1025,93; 3363,364;  346,919; 6809,707; 0,33092
1026,48; 3313,677;  338,616; 6720,283; 0,33144
1027,02; 3348,930;  394,599; 6708,773; 0,32986
1027,57; 3246,617;  345,359; 6542,934; 0,32964
1028,12; 3207,130;  333,916; 6471,030; 0,32960
1028,66; 3184,760;  348,806; 6404,217; 0,32944
1029,21; 3133,067;  333,713; 6304,967; 0,32901
1029,76; 3106,657;  339,803; 6241,130; 0,32896
1030,30; 3116,630;  380,986; 6207,597; 0,32836
1030,85; 3064,570;  370,063; 6108,160; 0,32829
1031,39; 3039,280;  370,733; 6040,474; 0,32729
1031,94; 2991,357;  343,223; 5972,513; 0,32751
1032,48; 2921,694;  324,673; 5838,660; 0,32699
1033,03; 2919,534;  329,169; 5817,297; 0,32606
1033,58; 2924,370;  368,229; 5782,210; 0,32593
1034,12; 2881,984;  360,720; 5686,133; 0,32474
1034,67; 2898,660;  399,076; 5649,287; 0,32231
1035,21; 2818,940;  365,473; 5551,737; 0,32507
1035,76; 2781,270;  344,960; 5484,537; 0,32419
1036,30; 2745,184;  348,030; 5413,547; 0,32493
1036,85; 2746,414;  380,396; 5377,013; 0,32466
1037,39; 2756,770;  416,466; 5334,184; 0,32249
1037,94; 2655,790;  349,196; 5207,890; 0,32355
1038,48; 2626,010;  338,643; 5141,737; 0,32219
1039,03; 2634,074;  373,493; 5108,557; 0,32111
1039,57; 2590,724;  366,930; 5024,490; 0,32106
1040,12; 2566,510;  364,776; 4981,644; 0,32158
1040,66; 2519,480;  348,836; 4879,820; 0,31960
1041,21; 2482,687;  352,936; 4811,423; 0,32086
1041,75; 2457,810;  351,656; 4769,130; 0,32168
1042,30; 2564,194;  459,243; 4828,610; 0,31718
1042,84; 2407,127;  342,613; 4642,390; 0,31863
1043,39; 2365,500;  344,900; 4561,894; 0,31952
1043,93; 2342,484;  343,566; 4520,994; 0,32011
1044,48; 2347,300;  362,359; 4489,937; 0,31795
1045,02; 2292,050;  343,566; 4416,013; 0,32016
1045,56; 2256,684;  331,503; 4340,793; 0,31860
1046,11; 2283,147;  386,669; 4333,570; 0,31831
1046,65; 2216,384;  347,596; 4235,907; 0,31820
1047,20; 2175,654;  330,393; 4167,097; 0,31790
1047,74; 2203,517;  381,756; 4147,160; 0,31532
1048,29; 2115,734;  322,349; 4045,970; 0,31729
1048,83; 2115,004;  347,240; 4011,200; 0,31653
1049,37; 2104,504;  351,456; 3983,350; 0,31634
1049,92; 2089,684;  356,576; 3936,160; 0,31501
1050,46; 2036,874;  342,889; 3850,480; 0,31610
1051,01; 2037,280;  352,203; 3833,090; 0,31507
1051,55; 1992,530;  341,103; 3753,723; 0,31523
1052,09; 1969,804;  343,909; 3693,370; 0,31388
1052,64; 1970,324;  354,220; 3679,400; 0,31335
1053,18; 2015,427;  423,710; 3684,783; 0,31149
1053,72; 1895,197;  334,703; 3533,437; 0,31172
1054,27; 1870,910;  335,210; 3491,753; 0,31291
1054,81; 1885,757;  364,639; 3485,010; 0,31204
1055,35; 1818,334;  327,106; 3388,440; 0,31237
1055,90; 1842,154;  366,440; 3392,307; 0,31185
1056,44; 1774,744;  329,490; 3299,423; 0,31280
1056,98; 1783,427;  355,383; 3278,530; 0,31111
1057,53; 1772,157;  362,373; 3248,990; 0,31124
1058,07; 1728,264;  345,326; 3171,057; 0,31033
1058,61; 1715,390;  351,180; 3140,150; 0,31056
1059,16; 1711,674;  368,546; 3108,967; 0,30970
1059,70; 1667,567;  347,456; 3047,287; 0,31073
1060,24; 1727,560;  412,843; 3069,753; 0,30554
1060,79; 1616,167;  341,276; 2943,720; 0,30991
1061,33; 1617,084;  362,563; 2916,407; 0,30872
1061,87; 1573,400;  337,963; 2852,107; 0,30857
1062,41; 1556,060;  340,879; 2816,517; 0,30905
1062,96; 1542,060;  341,323; 2783,697; 0,30836
1063,50; 1522,657;  341,463; 2740,027; 0,30763
1064,04; 1495,140;  337,530; 2700,487; 0,30989
1064,58; 1487,174;  343,353; 2670,340; 0,30844
1065,13; 1484,340;  356,750; 2655,497; 0,30934
1065,67; 1427,610;  322,683; 2574,650; 0,30923
1066,21; 1457,297;  364,620; 2595,043; 0,30990
1066,75; 1431,987;  353,186; 2547,043; 0,30827
1067,30; 1408,434;  347,159; 2501,800; 0,30755
1067,84; 1383,040;  342,446; 2455,923; 0,30772
1068,38; 1384,884;  350,966; 2449,183; 0,30736
1068,92; 1393,470;  372,113; 2430,747; 0,30440
1069,47; 1356,740;  356,023; 2392,167; 0,30850
1070,01; 1368,850;  377,866; 2389,163; 0,30741
1070,55; 1325,560;  348,099; 2332,950; 0,30763
1071,09; 1316,020;  353,516; 2300,533; 0,30597
1071,63; 1333,174;  383,440; 2299,667; 0,30484
1072,17; 1268,460;  334,406; 2224,487; 0,30611
1072,72; 1271,217;  349,373; 2212,077; 0,30549
1073,26; 1364,880;  436,223; 2281,950; 0,29831
1073,80; 1250,917;  353,056; 2174,157; 0,30712
1074,34; 1247,944;  359,900; 2157,660; 0,30630
1074,88; 1330,927;  436,163; 2207,467; 0,29658
1075,42; 1218,894;  355,943; 2099,837; 0,30553
1075,97; 1222,764;  363,093; 2083,614; 0,30133
1076,51; 1201,504;  359,293; 2053,867; 0,30364
1077,05; 1175,300;  344,363; 2008,640; 0,30166
1077,59; 1184,127;  366,263; 2009,293; 0,30296
1078,13; 1173,034;  361,016; 1990,213; 0,30241
1078,67; 1147,310;  352,346; 1945,463; 0,30190
1079,21; 1257,414;  459,393; 2036,727; 0,29591
1079,75; 1144,174;  365,949; 1928,377; 0,30270
1080,30; 1077,260;  321,243; 1838,057; 0,30240
1080,84; 1121,434;  372,430; 1875,903; 0,30261
1081,38; 1079,617;  337,859; 1823,847; 0,30175
1081,92; 1088,004;  356,223; 1821,410; 0,30151
1082,46; 1094,620;  373,710; 1816,893; 0,30144
1083,00; 1068,217;  352,409; 1781,943; 0,30040
1083,54; 1073,740;  370,983; 1773,647; 0,30015
1084,08; 1056,104;  363,356; 1750,513; 0,30155
1084,62; 1065,454;  376,706; 1744,307; 0,29790
1085,16; 1035,997;  365,873; 1706,487; 0,30115
1085,70; 1032,260;  363,773; 1692,007; 0,29818
1086,24;  993,904;  342,343; 1640,340; 0,29932
1086,78; 1003,217;  357,363; 1641,280; 0,29840
1087,32; 1022,747;  382,909; 1653,523; 0,29794
1087,86;  986,664;  352,190; 1610,090; 0,29723
1088,40;  982,140;  362,673; 1597,190; 0,29948
1088,94; 1007,070;  389,316; 1610,973; 0,29613
1089,48;  976,127;  367,039; 1570,150; 0,29563
1090,02;  947,380;  349,173; 1535,157; 0,29723
1090,56;  978,174;  386,066; 1553,667; 0,29489
1091,10;  967,037;  389,313; 1537,490; 0,29829
1091,64;  949,244;  375,203; 1510,520; 0,29617
1092,18;  946,847;  383,013; 1501,997; 0,29767
1092,72;  891,404;  336,460; 1436,147; 0,29702
1093,26;  929,547;  377,626; 1473,520; 0,29789
1093,80;  910,054;  372,243; 1436,850; 0,29656
1094,34;  889,897;  354,829; 1415,547; 0,29719
1094,88;  903,717;  377,946; 1425,693; 0,29946
1095,42;  920,827;  396,336; 1428,953; 0,29420
1095,96;  877,027;  361,909; 1375,670; 0,29403
1096,50;  872,107;  364,099; 1367,727; 0,29570
1097,04;  863,167;  363,473; 1352,963; 0,29671
1097,58;  860,234;  368,253; 1340,923; 0,29602
1098,12;  853,054;  366,406; 1321,510; 0,29284
1098,66;  865,397;  386,746; 1333,703; 0,29631
1099,20;  846,657;  376,586; 1305,960; 0,29603
1099,73;  833,270;  366,770; 1282,293; 0,29282
1100,27;  845,454;  383,053; 1289,500; 0,29232

