
Integration time [ms]: 200,000
Averaging Nr. [scans]: 300
Smoothing Nr. [pixels]: 0
Data measured with spectrometer [name]: 2112124U1
Wave   ;Sample   ;Dark     ;Reference;Absorbance
[nm]   ;[counts] ;[counts] ;[counts] ;[A.U]

 176,03;  370,256;  360,085;  361,766;-0,78175
 176,64;  392,098;  383,568;  380,058; 0,00000
 177,24;  368,363;  360,240;  358,030; 0,00000
 177,84;  385,753;  376,289;  375,041; 0,00000
 178,44;  391,318;  382,372;  384,307;-0,66498
 179,05;  403,750;  395,102;  393,245; 0,00000
 179,65;  371,353;  363,385;  360,949; 0,00000
 180,25;  369,237;  358,266;  363,503;-0,32118
 180,85;  381,860;  370,726;  368,972; 0,00000
 181,45;  380,511;  370,023;  370,344; 0,00000
 182,06;  363,146;  356,396;  354,159; 0,00000
 182,66;  421,926;  411,715;  411,613; 0,00000
 183,26;  375,242;  366,866;  366,806; 0,00000
 183,86;  405,857;  396,660;  394,765; 0,00000
 184,46;  351,971;  344,907;  345,601; 0,00000
 185,07;  376,349;  365,721;  369,104;-0,49718
 185,67;  417,776;  385,432;  484,410; 0,48574
 186,27;  420,743;  392,948;  491,702; 0,55058
 186,87;  403,000;  374,503;  470,507; 0,52750
 187,47;  423,314;  390,680;  490,031; 0,48350
 188,07;  410,380;  382,374;  482,569; 0,55360
 188,68;  396,705;  364,576;  475,468; 0,53800
 189,28;  388,766;  359,107;  458,738; 0,52624
 189,88;  397,451;  374,931;  462,542; 0,59001
 190,48;  401,112;  377,407;  457,720; 0,52994
 191,08;  432,219;  408,082;  501,853; 0,58939
 191,68;  396,172;  366,924;  470,092; 0,54744
 192,29;  460,021;  421,445;  535,607; 0,47120
 192,89;  420,803;  388,983;  500,960; 0,54642
 193,49;  435,384;  400,717;  518,844; 0,53244
 194,09;  413,852;  379,127;  498,981; 0,53801
 194,69;  452,373;  418,284;  540,034; 0,55285
 195,29;  385,615;  354,652;  472,590; 0,58081
 195,90;  408,565;  373,513;  499,556; 0,55581
 196,50;  424,202;  388,568;  516,374; 0,55469
 197,10;  438,856;  404,543;  533,403; 0,57466
 197,70;  410,101;  372,677;  503,428; 0,54329
 198,30;  409,180;  377,380;  509,028; 0,61698
 198,90;  428,959;  393,536;  531,489; 0,59044
 199,50;  419,257;  384,133;  531,112; 0,62165
 200,11;  430,224;  391,639;  552,233; 0,61931
 200,71;  449,558;  409,695;  591,699; 0,65951
 201,31;  458,276;  406,580;  620,877; 0,61757
 201,91;  439,131;  384,883;  644,043; 0,67919
 202,51;  442,604;  384,918;  699,059; 0,73606
 203,11;  476,831;  404,412;  782,940; 0,71824
 203,71;  439,508;  359,274;  812,596; 0,75205
 204,31;  461,301;  370,261;  896,564; 0,76200
 204,91;  495,383;  388,517;  994,399; 0,75355
 205,52;  468,677;  360,153; 1028,559; 0,78952
 206,12;  500,832;  380,197; 1120,244; 0,78779
 206,72;  510,134;  382,223; 1194,932; 0,80303
 207,32;  504,031;  367,923; 1244,209; 0,80876
 207,92;  539,692;  391,240; 1337,763; 0,80455
 208,52;  559,555;  397,423; 1429,559; 0,80387
 209,12;  548,641;  377,125; 1505,057; 0,81798
 209,72;  575,728;  387,141; 1638,489; 0,82187
 210,32;  566,568;  364,232; 1737,570; 0,83170
 210,92;  598,210;  375,875; 1893,642; 0,83420
 211,53;  611,192;  373,543; 2040,929; 0,84610
 212,13;  619,920;  356,459; 2185,346; 0,84147
 212,73;  672,106;  390,919; 2373,938; 0,84833
 213,33;  633,836;  340,581; 2452,200; 0,85737
 213,93;  676,267;  365,789; 2589,309; 0,85501
 214,53;  795,001;  463,088; 2774,877; 0,84292
 215,13;  697,722;  374,299; 2706,247; 0,85795
 215,73;  656,900;  352,064; 2586,147; 0,86503
 216,33;  605,631;  330,625; 2324,925; 0,86045
 216,93;  578,635;  353,156; 1976,703; 0,85736
 217,53;  563,351;  372,175; 1751,992; 0,85839
 218,13;  598,204;  378,767; 2006,463; 0,87026
 218,73;  669,522;  351,796; 2816,591; 0,88973
 219,33;  798,311;  351,077; 3875,882; 0,89660
 219,93;  949,759;  385,258; 4878,317; 0,90088
 220,53; 1035,654;  372,999; 5634,988; 0,89986
 221,14; 1085,502;  364,044; 6196,632; 0,90765
 221,74; 1149,074;  361,626; 6684,458; 0,90469
 222,34; 1167,422;  343,687; 7080,172; 0,91265
 222,94; 1221,326;  349,855; 7501,498; 0,91415
 223,54; 1243,604;  328,743; 7905,167; 0,91811
 224,14; 1408,671;  431,994; 8480,714; 0,91598
 224,74; 1373,397;  360,118; 8926,688; 0,92708
 225,34; 1424,577;  357,229; 9339,535; 0,92508
 225,94; 1440,130;  338,030; 9767,511; 0,93227
 226,54; 1500,302;  350,738;10257,946; 0,93542
 227,14; 1566,291;  365,936;10757,968; 0,93739
 227,74; 1591,849;  350,104;11086,055; 0,93681
 228,34; 1627,065;  351,450;11592,785; 0,94510
 228,94; 1634,419;  325,353;11914,619; 0,94709
 229,54; 1714,272;  360,508;12403,170; 0,94918
 230,14; 1741,803;  346,823;12903,004; 0,95429
 230,74; 1789,787;  344,565;13441,471; 0,95723
 231,34; 1854,294;  356,340;14021,042; 0,96010
 231,94; 1913,862;  352,503;14666,870; 0,96227
 232,54; 1935,031;  334,666;15158,793; 0,96675
 233,14; 2024,511;  373,015;15710,777; 0,96788
 233,74; 2014,907;  332,580;16139,117; 0,97293
 234,34; 2043,233;  328,087;16457,922; 0,97333
 234,94; 2083,258;  350,162;16796,764; 0,97725
 235,54; 2060,540;  323,556;16830,246; 0,97786
 236,14; 2089,118;  360,183;16906,576; 0,98092
 236,74; 2053,261;  345,190;16768,246; 0,98295
 237,34; 2036,050;  356,368;16610,350; 0,98573
 237,94; 1969,176;  324,546;16318,009; 0,98787
 238,54; 1937,979;  321,561;16034,139; 0,98769
 239,14; 1901,013;  335,450;15675,290; 0,99115
 239,74; 1829,419;  303,739;15249,012; 0,99104
 240,34; 1800,564;  323,579;14915,701; 0,99474
 240,93; 1885,449;  436,979;14666,622; 0,99228
 241,53; 1758,788;  362,617;14235,317; 0,99722
 242,13; 1772,714;  406,027;13863,337; 0,99329
 242,73; 1636,803;  330,655;13429,511; 1,00124
 243,33; 1599,281;  332,617;13016,658; 1,00060
 243,93; 1616,100;  389,052;12693,787; 1,00121
 244,53; 1524,206;  338,653;12294,700; 1,00367
 245,13; 1509,386;  365,120;11965,734; 1,00595
 245,73; 1483,802;  369,150;11664,556; 1,00576
 246,33; 1438,236;  352,846;11441,659; 1,00930
 246,93; 1403,101;  336,518;11258,408; 1,01030
 247,53; 1398,224;  337,779;11272,542; 1,01332
 248,13; 1375,011;  326,586;11280,047; 1,01901
 248,73; 1411,891;  341,941;11505,646; 1,01844
 249,33; 1442,689;  347,648;11886,436; 1,02273
 249,93; 1493,242;  355,854;12402,773; 1,02497
 250,52; 1496,950;  320,376;12917,021; 1,02964
 251,12; 1603,643;  354,657;13668,991; 1,02776
 251,72; 1639,379;  332,946;14442,048; 1,03341
 252,32; 1701,041;  323,142;15252,449; 1,03482
 252,92; 1776,155;  319,625;16257,335; 1,03911
 253,52; 1886,666;  344,931;17276,217; 1,04068
 254,12; 1961,386;  346,708;18245,842; 1,04475
 254,72; 2038,303;  341,595;19301,486; 1,04823
 255,32; 2145,028;  353,358;20452,605; 1,04992
 255,92; 2203,671;  336,540;21473,709; 1,05387
 256,52; 2275,262;  341,163;22372,912; 1,05657
 257,11; 2333,574;  332,922;23223,660; 1,05849
 257,71; 2442,889;  363,648;24227,588; 1,05984
 258,31; 2500,682;  379,392;24809,926; 1,06133
 258,91; 2499,620;  337,271;25322,371; 1,06276
 259,51; 2631,612;  416,632;26053,363; 1,06349
 260,11; 2533,463;  315,246;26167,789; 1,06650
 260,71; 2611,425;  368,256;26618,178; 1,06827
 261,31; 2553,932;  328,066;26545,822; 1,07110
 261,90; 2573,494;  328,584;26815,539; 1,07183
 262,50; 2605,351;  355,006;27070,449; 1,07451
 263,10; 2602,863;  344,284;27264,180; 1,07624
 263,70; 2609,396;  328,851;27603,250; 1,07772
 264,30; 2636,213;  343,649;27807,199; 1,07844
 264,90; 2631,605;  329,243;28012,723; 1,08005
 265,50; 2635,253;  344,093;28062,455; 1,08271
 266,09; 2655,541;  362,293;28060,172; 1,08200
 266,69; 2558,833;  320,229;27609,492; 1,08601
 267,29; 2565,706;  348,330;27436,844; 1,08695
 267,89; 2502,916;  327,077;27069,955; 1,08958
 268,49; 2476,932;  332,949;26784,717; 1,09123
 269,09; 2473,762;  349,774;26583,254; 1,09170
 269,68; 2452,537;  350,298;26420,529; 1,09346
 270,28; 2405,650;  330,266;26128,607; 1,09449
 270,88; 2412,898;  344,483;26201,021; 1,09693
 271,48; 2390,616;  336,837;26052,754; 1,09765
 272,08; 2371,616;  324,767;26156,395; 1,10107
 272,68; 2420,003;  347,896;26542,258; 1,10180
 273,27; 2445,833;  337,847;27155,920; 1,10456
 273,87; 2495,934;  352,211;27713,570; 1,10597
 274,47; 2572,496;  368,810;28546,043; 1,10675
 275,07; 2581,234;  324,017;29346,957; 1,10917
 275,67; 2645,698;  342,096;30026,178; 1,11012
 276,26; 2698,844;  354,399;30667,236; 1,11159
 276,86; 2733,627;  335,265;31333,146; 1,11142
 277,46; 2763,542;  338,462;31950,135; 1,11512
 278,06; 2774,013;  320,875;32421,756; 1,11679
 278,66; 2837,694;  346,072;33043,078; 1,11803
 279,25; 2826,659;  319,012;33308,609; 1,11911
 279,85; 2895,704;  358,168;33672,867; 1,11822
 280,45; 2906,208;  348,762;34131,902; 1,12089
 281,05; 2892,774;  335,839;34245,816; 1,12261
 281,65; 2942,502;  375,927;34542,508; 1,12425
 282,24; 2938,627;  380,260;34644,141; 1,12687
 282,84; 2894,572;  328,879;34561,949; 1,12524
 283,44; 2912,808;  343,119;34750,844; 1,12678
 284,04; 2901,173;  340,057;34782,652; 1,12867
 284,63; 2890,530;  363,828;34727,520; 1,13355
 285,23; 2887,231;  328,020;34873,770; 1,13029
 285,83; 2886,038;  343,171;34850,891; 1,13259
 286,43; 2876,353;  343,839;34739,059; 1,13295
 287,02; 2908,438;  401,625;34383,414; 1,13212
 287,62; 2786,337;  329,739;33740,402; 1,13355
 288,22; 2755,679;  351,950;33117,680; 1,13453
 288,82; 2688,572;  346,985;32371,410; 1,13597
 289,41; 2639,066;  341,009;31804,914; 1,13645
 290,01; 2645,501;  364,071;31650,410; 1,13715
 290,61; 2667,832;  377,785;32036,463; 1,14065
 291,21; 2652,438;  332,162;32409,295; 1,14066
 291,80; 2680,901;  332,678;32792,180; 1,14060
 292,40; 2706,212;  345,497;32995,141; 1,14083
 293,00; 2705,691;  357,397;32992,750; 1,14294
 293,60; 2675,713;  335,086;32815,305; 1,14229
 294,19; 2660,977;  325,297;32738,178; 1,14230
 294,79; 2645,669;  331,451;32544,539; 1,14363
 295,39; 2659,033;  368,093;32224,730; 1,14319
 295,98; 2585,092;  327,771;31756,078; 1,14373
 296,58; 2539,690;  332,681;31028,328; 1,14327
 297,18; 2453,693;  315,494;30103,504; 1,14399
 297,77; 2441,730;  355,326;29573,545; 1,14626
 298,37; 2442,068;  345,247;29785,182; 1,14738
 298,97; 2509,119;  347,663;30829,982; 1,14930
 299,57; 2560,979;  317,408;31970,611; 1,14948
 300,16; 2640,488;  338,623;32820,301; 1,14956
 300,76; 2724,973;  358,279;33690,355; 1,14872
 301,36; 2758,040;  361,151;34230,387; 1,15016
 301,95; 2754,270;  316,304;34798,539; 1,15057
 302,55; 2814,614;  355,675;35232,215; 1,15179
 303,15; 2812,539;  325,198;35579,992; 1,15148
 303,74; 2858,436;  343,892;35958,609; 1,15117
 304,34; 2886,435;  342,763;36314,242; 1,15050
 304,94; 2883,007;  332,414;36606,313; 1,15295
 305,53; 2932,593;  362,732;36751,719; 1,15106
 306,13; 2917,180;  326,919;37116,277; 1,15238
 306,73; 2977,556;  367,097;37418,402; 1,15209
 307,32; 2958,077;  350,834;37456,480; 1,15326
 307,92; 2926,913;  337,315;37351,227; 1,15513
 308,52; 2955,428;  348,734;37361,039; 1,15226
 309,11; 2930,305;  342,473;37038,258; 1,15168
 309,71; 2949,894;  380,133;36921,305; 1,15289
 310,31; 2850,441;  293,010;36688,867; 1,15325
 310,90; 2867,583;  326,332;36533,406; 1,15375
 311,50; 2883,687;  335,359;36653,270; 1,15387
 312,10; 2885,977;  346,057;36714,820; 1,15591
 312,69; 2873,523;  318,119;36715,879; 1,15362
 313,29; 2896,358;  348,324;36717,684; 1,15453
 313,88; 2841,677;  312,732;36372,906; 1,15409
 314,48; 2853,653;  350,385;36023,531; 1,15383
 315,08; 2737,587;  297,472;35179,883; 1,15520
 315,67; 2756,409;  338,998;34849,176; 1,15460
 316,27; 2663,456;  303,228;34085,301; 1,15573
 316,87; 2661,116;  350,102;33402,055; 1,15539
 317,46; 2548,385;  297,755;32568,320; 1,15650
 318,06; 2553,193;  337,915;32186,400; 1,15766
 318,65; 2525,760;  323,899;31861,992; 1,15605
 319,25; 2515,806;  336,088;31660,230; 1,15748
 319,85; 2473,382;  321,136;31307,520; 1,15828
 320,44; 2475,065;  347,466;30953,359; 1,15792
 321,04; 2443,812;  326,130;30715,531; 1,15686
 321,63; 2436,784;  331,955;30592,676; 1,15766
 322,23; 2390,111;  292,786;30467,719; 1,15798
 322,83; 2426,108;  327,474;30515,471; 1,15790
 323,42; 2408,999;  332,559;30154,465; 1,15722
 324,02; 2359,952;  310,722;29795,477; 1,15801
 324,61; 2348,857;  314,178;29573,896; 1,15777
 325,21; 2363,285;  349,034;29261,375; 1,15697
 325,80; 2328,180;  329,734;29058,357; 1,15762
 326,40; 2459,683;  463,153;28794,930; 1,15200
 327,00; 2255,994;  315,383;28220,221; 1,15774
 327,59; 2241,972;  317,191;27992,975; 1,15772
 328,19; 2250,895;  341,769;27739,691; 1,15688
 328,78; 2214,772;  329,765;27395,291; 1,15710
 329,38; 2198,011;  331,314;27147,514; 1,15732
 329,97; 2181,196;  324,245;26933,363; 1,15623
 330,57; 2168,968;  329,113;26638,295; 1,15532
 331,16; 2134,120;  320,243;26262,889; 1,15541
 331,76; 2115,521;  321,632;25970,570; 1,15527
 332,36; 2120,744;  341,464;25631,371; 1,15270
 332,95; 2082,107;  325,077;25301,270; 1,15275
 333,55; 2101,201;  355,424;25195,656; 1,15317
 334,14; 2064,696;  314,962;25133,727; 1,15181
 334,74; 2089,016;  323,212;25246,543; 1,14966
 335,33; 2094,908;  310,558;25461,807; 1,14908
 335,93; 2131,703;  321,198;25871,047; 1,14959
 336,52; 2149,044;  311,280;26125,580; 1,14757
 337,12; 2218,329;  358,353;26425,563; 1,14659
 337,71; 2212,836;  331,151;26636,682; 1,14550
 338,31; 2255,140;  349,798;26886,191; 1,14387
 338,90; 2272,731;  359,218;27016,051; 1,14398
 339,50; 2277,569;  332,774;27194,943; 1,14027
 340,09; 2275,961;  330,714;27193,990; 1,14018
 340,69; 2269,950;  314,062;27191,070; 1,13804
 341,28; 2289,224;  334,554;27114,424; 1,13673
 341,88; 2258,992;  327,602;26736,094; 1,13587
 342,47; 2272,468;  337,203;26654,141; 1,13349
 343,07; 2294,768;  329,782;27111,371; 1,13448
 343,66; 2317,102;  319,164;27382,406; 1,13180
 344,26; 2383,344;  315,472;28215,020; 1,13007
 344,85; 2426,445;  321,748;28705,811; 1,12988
 345,45; 2480,986;  319,328;29186,760; 1,12562
 346,04; 2564,821;  363,798;29553,707; 1,12261
 346,64; 2546,050;  329,933;29681,266; 1,12204
 347,23; 2554,525;  312,849;29850,771; 1,11981
 347,83; 2622,678;  340,044;30171,982; 1,11625
 348,42; 2689,506;  379,754;30248,139; 1,11165
 349,01; 2630,910;  331,950;30043,031; 1,11139
 349,61; 2595,054;  289,497;29912,385; 1,10885
 350,20; 2668,544;  338,670;30007,291; 1,10496
 350,80; 2657,862;  315,180;30000,828; 1,10283
 351,39; 2674,675;  323,399;29855,340; 1,09899
 351,99; 2653,935;  307,432;29664,795; 1,09730
 352,58; 2670,779;  322,275;29502,271; 1,09429
 353,18; 2683,918;  350,621;29067,752; 1,09017
 353,77; 2631,818;  319,401;28610,082; 1,08758
 354,36; 2677,812;  363,933;28394,861; 1,08330
 354,96; 2620,392;  323,516;28010,125; 1,08113
 355,55; 2614,910;  312,437;27860,438; 1,07790
 356,15; 2634,261;  330,544;27708,092; 1,07497
 356,74; 2632,450;  314,084;27694,348; 1,07226
 357,34; 2667,353;  325,215;27665,398; 1,06719
 357,93; 2709,947;  330,943;27768,234; 1,06195
 358,52; 2704,825;  313,833;27667,830; 1,05844
 359,12; 2731,613;  329,189;27592,291; 1,05493
 359,71; 2728,820;  324,720;27354,119; 1,05088
 360,31; 2727,922;  319,603;27162,744; 1,04712
 360,90; 2705,661;  308,969;26681,320; 1,04154
 361,49; 2732,426;  327,363;26486,975; 1,03650
 362,09; 2724,677;  334,750;26122,840; 1,03303
 362,68; 2699,009;  327,317;25547,441; 1,02669
 363,28; 2635,296;  314,169;24740,945; 1,02217
 363,87; 2569,931;  303,751;23894,488; 1,01745
 364,46; 2562,159;  325,776;23378,375; 1,01317
 365,06; 2576,073;  347,966;23117,025; 1,00941
 365,65; 2575,229;  331,132;23129,883; 1,00687
 366,24; 2607,175;  317,893;23358,945; 1,00280
 366,84; 2665,213;  351,946;23333,225; 0,99715
 367,43; 2594,386;  306,425;22885,377; 0,99426
 368,03; 2610,461;  318,536;22545,277; 0,98668
 368,62; 2552,080;  305,168;21980,707; 0,98438
 369,21; 2569,337;  326,363;21691,662; 0,97888
 369,81; 2538,697;  320,450;21166,752; 0,97302
 370,40; 2509,175;  333,881;20593,443; 0,96911
 370,99; 2465,070;  303,137;20252,689; 0,96509
 371,59; 2505,508;  352,136;19950,072; 0,95909
 372,18; 2425,235;  288,455;19588,654; 0,95580
 372,77; 2439,303;  324,144;19257,648; 0,95189
 373,37; 2410,300;  311,511;18901,502; 0,94731
 373,96; 2441,623;  338,941;18713,932; 0,94145
 374,55; 2402,029;  304,986;18537,557; 0,93924
 375,15; 2463,931;  333,459;18660,934; 0,93463
 375,74; 2458,183;  303,049;18655,016; 0,93021
 376,33; 2484,239;  302,584;18703,863; 0,92606
 376,93; 2557,605;  329,167;18992,068; 0,92298
 377,52; 2635,565;  320,726;19512,434; 0,91859
 378,11; 2667,917;  293,780;19794,580; 0,91455
 378,71; 2790,245;  313,230;20435,998; 0,90976
 379,30; 2881,458;  313,851;20944,291; 0,90498
 379,89; 2894,664;  317,272;20801,727; 0,90024
 380,49; 2923,822;  345,041;20700,744; 0,89727
 381,08; 2913,865;  310,804;20625,727; 0,89233
 381,67; 2952,137;  345,783;20551,613; 0,88944
 382,26; 2981,371;  319,894;20787,807; 0,88595
 382,86; 3029,446;  312,601;20923,523; 0,88003
 383,45; 3003,612;  307,675;20545,236; 0,87545
 384,04; 3097,217;  406,782;20370,605; 0,87042
 384,64; 3019,597;  328,606;20173,217; 0,86773
 385,23; 3008,104;  316,863;20077,385; 0,86585
 385,82; 3078,862;  328,841;20318,053; 0,86146
 386,41; 3193,292;  326,346;20979,469; 0,85757
 387,01; 3395,801;  356,374;22083,871; 0,85422
 387,60; 3506,495;  334,946;22828,563; 0,85079
 388,19; 3658,676;  355,375;23536,895; 0,84619
 388,78; 3702,936;  339,551;23658,555; 0,84093
 389,38; 3619,397;  322,049;23018,770; 0,83780
 389,97; 3610,364;  305,389;22962,205; 0,83603
 390,56; 3743,066;  336,349;23379,697; 0,83021
 391,15; 3798,926;  305,641;23809,744; 0,82791
 391,75; 3958,478;  339,052;24484,654; 0,82420
 392,34; 4156,166;  332,839;25726,035; 0,82228
 392,93; 4317,345;  355,482;26294,539; 0,81605
 393,52; 4219,315;  309,316;25522,092; 0,80944
 394,12; 4088,535;  334,016;24551,967; 0,80958
 394,71; 4061,280;  288,556;24456,102; 0,80658
 395,30; 4075,995;  289,076;24281,830; 0,80179
 395,89; 4155,925;  349,207;24286,957; 0,79853
 396,49; 4226,970;  332,882;24648,262; 0,79548
 397,08; 4334,295;  317,254;25247,852; 0,79283
 397,67; 4571,985;  335,400;26447,506; 0,78983
 398,26; 4812,200;  335,033;27655,400; 0,78548
 398,85; 4815,899;  318,964;27441,340; 0,78041
 399,45; 4643,460;  314,448;26241,176; 0,77736
 400,04; 4596,902;  358,283;25589,816; 0,77472
 400,63; 4515,254;  307,540;25218,330; 0,77234
 401,22; 4568,198;  320,670;25276,740; 0,76904
 401,81; 4481,180;  309,772;24606,875; 0,76527
 402,41; 4567,487;  417,593;24442,350; 0,76262
 403,00; 4475,904;  318,910;24249,396; 0,76017
 403,59; 4522,121;  350,205;24188,498; 0,75694
 404,18; 4494,269;  314,737;24004,834; 0,75344
 404,77; 4524,719;  320,921;24121,902; 0,75295
 405,36; 4553,445;  300,147;24137,236; 0,74853
 405,96; 4448,243;  310,058;23220,281; 0,74322
 406,55; 4246,274;  302,865;22050,420; 0,74154
 407,14; 4182,295;  308,178;21666,172; 0,74139
 407,73; 4250,578;  340,507;21753,471; 0,73849
 408,32; 4346,078;  310,319;22386,865; 0,73801
 408,91; 4446,586;  326,255;22630,313; 0,73345
 409,51; 4415,435;  328,485;22229,078; 0,72906
 410,10; 4279,868;  282,990;21608,207; 0,72717
 410,69; 4182,699;  303,361;20784,264; 0,72259
 411,28; 4090,675;  307,734;20263,029; 0,72223
 411,87; 4061,417;  321,629;19937,164; 0,71975
 412,46; 4062,898;  314,398;19937,150; 0,71890
 413,05; 4079,857;  342,649;19703,902; 0,71439
 413,64; 3942,511;  295,160;19076,104; 0,71174
 414,24; 3813,627;  307,466;18259,146; 0,70927
 414,83; 3786,165;  343,144;17909,514; 0,70774
 415,42; 3742,269;  333,481;17641,084; 0,70564
 416,01; 3778,722;  314,763;17855,305; 0,70447
 416,60; 3863,042;  356,694;17976,219; 0,70114
 417,19; 3836,592;  314,747;17938,844; 0,69934
 417,78; 3906,741;  357,811;18033,521; 0,69728
 418,37; 3904,848;  329,286;18057,180; 0,69531
 418,96; 3977,947;  332,481;18329,111; 0,69344
 419,56; 4029,102;  331,036;18497,662; 0,69130
 420,15; 4091,076;  310,794;18813,955; 0,68972
 420,74; 4244,111;  320,123;19542,234; 0,69007
 421,33; 4468,306;  306,377;20561,982; 0,68725
 421,92; 4563,928;  340,829;20671,750; 0,68253
 422,51; 4324,067;  316,919;19414,900; 0,67815
 423,10; 4162,215;  330,832;18588,023; 0,67808
 423,69; 4009,108;  325,424;17824,646; 0,67674
 424,28; 3891,082;  309,095;17336,279; 0,67702
 424,87; 3913,731;  326,887;17276,467; 0,67445
 425,46; 3859,338;  351,671;16758,803; 0,67001
 426,05; 3687,207;  316,481;16081,728; 0,66998
 426,64; 3645,079;  305,841;15978,011; 0,67148
 427,24; 3871,260;  344,035;16804,531; 0,66901
 427,83; 3820,504;  274,800;16670,225; 0,66502
 428,42; 3881,053;  342,896;16661,053; 0,66389
 429,01; 3972,589;  285,055;17347,168; 0,66530
 429,60; 4395,684;  339,989;19104,686; 0,66528
 430,19; 4560,686;  332,868;19634,428; 0,65948
 430,78; 4370,316;  342,418;18565,756; 0,65555
 431,37; 4041,250;  372,486;16839,295; 0,65209
 431,96; 3716,985;  339,941;15553,188; 0,65369
 432,55; 3613,525;  321,509;15163,475; 0,65403
 433,14; 3763,201;  309,542;16044,614; 0,65859
 433,73; 4182,214;  343,113;17603,203; 0,65281
 434,32; 3986,074;  347,339;16363,508; 0,64361
 434,91; 3679,567;  291,776;15422,009; 0,64993
 435,50; 3759,878;  347,692;15482,210; 0,64694
 436,09; 3775,924;  332,149;15637,316; 0,64780
 436,68; 3824,822;  334,301;15719,837; 0,64422
 437,27; 3684,746;  327,328;15035,827; 0,64156
 437,86; 3665,573;  315,031;15078,494; 0,64407
 438,45; 3783,124;  331,853;15473,938; 0,64221
 439,04; 3770,733;  325,057;15358,031; 0,63977
 439,63; 3715,210;  318,390;15078,922; 0,63803
 440,22; 3747,165;  348,409;15141,058; 0,63873
 440,81; 4074,958;  337,444;16730,488; 0,64208
 441,40; 4503,087;  339,683;18374,789; 0,63667
 441,99; 4356,091;  321,980;17582,588; 0,63131
 442,58; 4241,676;  323,034;17141,949; 0,63266
 443,17; 4349,784;  311,104;17734,111; 0,63488
 443,76; 4440,469;  331,320;17910,510; 0,63125
 444,35; 4349,765;  328,073;17435,666; 0,62878
 444,94; 4363,660;  355,709;17382,781; 0,62822
 445,53; 4245,395;  329,913;16956,162; 0,62801
 446,12; 4295,746;  336,521;17131,809; 0,62758
 446,71; 4340,254;  352,864;17180,354; 0,62533
 447,29; 4196,396;  343,182;16581,564; 0,62472
 447,88; 4102,883;  332,495;16187,663; 0,62378
 448,47; 4130,128;  338,368;16266,140; 0,62331
 449,06; 4186,101;  314,734;16558,213; 0,62281
 449,65; 4246,692;  334,777;16710,730; 0,62182
 450,24; 4247,210;  342,382;16661,139; 0,62109
 450,83; 4172,465;  338,601;16286,759; 0,61907
 451,42; 4163,951;  328,151;16318,315; 0,62000
 452,01; 4206,605;  326,842;16439,650; 0,61837
 452,60; 4177,144;  346,208;16128,940; 0,61488
 453,19; 4031,936;  332,449;15558,139; 0,61444
 453,78; 3947,947;  310,454;15284,736; 0,61454
 454,37; 4018,092;  360,490;15422,726; 0,61469
 454,95; 4150,022;  348,093;16048,419; 0,61590
 455,54; 4187,082;  318,593;16136,688; 0,61161
 456,13; 4063,445;  346,680;15487,373; 0,60998
 456,72; 4066,510;  332,567;15641,142; 0,61277
 457,31; 4274,955;  345,328;16400,982; 0,61128
 457,90; 4394,535;  349,150;16855,381; 0,61069
 458,49; 4450,983;  336,551;17033,602; 0,60833
 459,08; 4438,214;  328,696;17043,375; 0,60931
 459,67; 4525,013;  364,575;17237,633; 0,60805
 460,25; 4422,706;  348,060;16781,980; 0,60565
 460,84; 4426,310;  341,515;16861,957; 0,60685
 461,43; 4248,716;  328,759;16023,012; 0,60246
 462,02; 3926,691;  318,689;14794,191; 0,60337
 462,61; 3890,939;  308,528;14785,124; 0,60649
 463,20; 4176,642;  345,430;15756,023; 0,60448
 463,79; 4371,308;  323,114;16559,641; 0,60323
 464,37; 4509,859;  351,902;17023,367; 0,60309
 464,96; 4645,864;  327,519;17646,559; 0,60321
 465,55; 4797,903;  309,586;18158,438; 0,59953
 466,14; 4562,760;  330,745;17039,525; 0,59640
 466,73; 4055,531;  325,655;15032,316; 0,59582
 467,32; 3918,520;  337,854;14508,477; 0,59743
 467,90; 3884,981;  323,250;14414,938; 0,59730
 468,49; 3770,545;  321,325;13916,073; 0,59565
 469,08; 3580,576;  321,166;13136,986; 0,59461
 469,67; 3462,972;  328,626;12695,922; 0,59613
 470,26; 3420,216;  313,395;12559,830; 0,59569
 470,85; 3396,281;  299,552;12480,969; 0,59479
 471,43; 3437,568;  321,005;12602,268; 0,59557
 472,02; 3509,844;  316,632;12906,532; 0,59579
 472,61; 3638,153;  301,118;13437,555; 0,59512
 473,20; 3843,543;  358,280;14023,160; 0,59337
 473,79; 3808,014;  346,202;13830,846; 0,59054
 474,37; 3771,312;  338,464;13780,721; 0,59282
 474,96; 3967,342;  330,287;14583,107; 0,59315
 475,55; 3949,472;  314,761;14403,431; 0,58840
 476,14; 3766,398;  311,537;13683,688; 0,58777
 476,72; 3687,372;  331,043;13303,588; 0,58716
 477,31; 3580,241;  316,057;12985,107; 0,58897
 477,90; 3776,379;  318,904;13738,083; 0,58897
 478,49; 3763,506;  318,129;13549,364; 0,58436
 479,08; 3675,216;  332,413;13243,997; 0,58687
 479,66; 3812,000;  310,728;13875,031; 0,58817
 480,25; 3921,924;  311,043;14219,396; 0,58566
 480,84; 3808,838;  308,632;13730,607; 0,58372
 481,43; 3925,081;  347,375;14142,333; 0,58612
 482,01; 3875,508;  292,309;13942,782; 0,58088
 482,60; 3681,235;  346,524;13098,231; 0,58251
 483,19; 3628,507;  310,527;13048,366; 0,58422
 483,78; 3795,011;  322,650;13672,611; 0,58486
 484,36; 4079,257;  311,520;14891,580; 0,58768
 484,95; 4850,038;  344,823;18579,404; 0,60718
 485,54;10591,543;  328,117;40502,590; 0,59266
 486,12;11444,456;  323,706;40410,520; 0,55687
 486,71; 5524,569;  310,591;18751,363; 0,54861
 487,30; 4201,018;  335,957;14819,509; 0,57372
 487,89; 3594,360;  325,748;12514,656; 0,57160
 488,47; 3294,929;  295,591;11603,951; 0,57637
 489,06; 3306,326;  316,463;11575,978; 0,57587
 489,65; 3271,685;  355,341;11266,909; 0,57305
 490,23; 3172,152;  361,139;10942,286; 0,57567
 490,82; 3130,339;  303,619;10937,221; 0,57540
 491,41; 3134,806;  326,297;10870,940; 0,57456
 492,00; 3088,801;  345,532;10651,551; 0,57482
 492,58; 3077,449;  324,445;10621,289; 0,57290
 493,17; 3098,879;  333,966;10700,254; 0,57394
 493,76; 3164,949;  398,260;10736,825; 0,57250
 494,34; 3112,629;  350,544;10645,819; 0,57140
 494,93; 2995,327;  343,493;10161,253; 0,56847
 495,52; 2949,868;  328,559;10177,805; 0,57488
 496,10; 3271,809;  317,407;11400,070; 0,57417
 496,69; 3244,003;  352,159;10928,375; 0,56316
 497,28; 2887,226;  393,059; 9517,639; 0,56329
 497,86; 2750,686;  324,829; 9317,378; 0,56902
 498,45; 2837,331;  312,333; 9695,438; 0,57009
 499,04; 2982,329;  350,916;10122,075; 0,56976
 499,62; 3057,027;  376,735;10220,077; 0,56496
 500,21; 2882,134;  346,371; 9636,579; 0,56392
 500,80; 2847,109;  318,063; 9697,120; 0,56920
 501,38; 2982,861;  328,892;10114,727; 0,56670
 501,97; 2977,393;  333,129;10052,751; 0,56534
 502,55; 2948,093;  323,333; 9987,355; 0,56607
 503,14; 2940,774;  322,978; 9953,820; 0,56573
 503,73; 2852,944;  313,898; 9580,801; 0,56226
 504,31; 2717,109;  311,573; 9120,442; 0,56371
 504,90; 2777,247;  349,119; 9251,674; 0,56424
 505,49; 2736,144;  320,179; 9180,311; 0,56435
 506,07; 2816,723;  335,290; 9422,761; 0,56374
 506,66; 2733,313;  302,735; 9120,313; 0,55964
 507,24; 2564,240;  313,190; 8517,741; 0,56167
 507,83; 2618,285;  303,041; 8787,331; 0,56402
 508,42; 2630,917;  289,609; 8758,297; 0,55836
 509,00; 2563,110;  338,337; 8399,396; 0,55911
 509,59; 2529,539;  336,317; 8273,204; 0,55857
 510,17; 2543,237;  327,608; 8317,195; 0,55703
 510,76; 2511,288;  344,803; 8158,958; 0,55713
 511,34; 2442,789;  312,100; 7965,839; 0,55535
 511,93; 2360,590;  325,068; 7615,515; 0,55408
 512,52; 2330,795;  324,009; 7525,500; 0,55492
 513,10; 2331,454;  316,527; 7511,817; 0,55279
 513,69; 2299,833;  334,197; 7359,125; 0,55314
 514,27; 2244,105;  319,883; 7190,599; 0,55275
 514,86; 2185,034;  350,522; 6843,645; 0,54893
 515,44; 2117,932;  304,801; 6795,849; 0,55389
 516,03; 2212,626;  331,216; 7055,729; 0,55318
 516,61; 2237,106;  351,743; 7047,037; 0,55037
 517,20; 2127,860;  305,505; 6757,669; 0,54907
 517,79; 2105,329;  351,295; 6549,768; 0,54825
 518,37; 2109,264;  328,449; 6661,492; 0,55099
 518,96; 2313,785;  437,029; 7058,706; 0,54756
 519,54; 2133,378;  296,059; 6743,821; 0,54522
 520,13; 2048,957;  345,298; 6327,904; 0,54551
 520,71; 2018,503;  307,564; 6347,159; 0,54777
 521,30; 2103,206;  323,702; 6553,108; 0,54415
 521,88; 2044,879;  313,611; 6381,205; 0,54465
 522,47; 2115,271;  339,170; 6578,267; 0,54565
 523,05; 2153,477;  331,082; 6718,754; 0,54470
 523,64; 2237,137;  332,276; 7008,169; 0,54465
 524,22; 2271,969;  328,083; 7126,842; 0,54376
 524,81; 2257,902;  324,383; 7085,186; 0,54365
 525,39; 2300,506;  333,523; 7270,596; 0,54738
 525,98; 2369,886;  319,088; 7529,497; 0,54604
 526,56; 2460,829;  331,801; 7810,998; 0,54567
 527,15; 2524,411;  326,330; 8029,121; 0,54460
 527,73; 2581,912;  358,773; 8150,000; 0,54464
 528,32; 2702,146;  327,102; 8700,708; 0,54724
 528,90; 2864,884;  319,242; 9211,103; 0,54320
 529,49; 2838,435;  326,499; 9084,329; 0,54239
 530,07; 2814,815;  319,326; 9020,797; 0,54244
 530,66; 2880,832;  362,735; 9147,239; 0,54264
 531,24; 2891,348;  355,365; 9209,779; 0,54301
 531,82; 2902,186;  333,281; 9279,736; 0,54190
 532,41; 2941,717;  335,565; 9393,586; 0,54103
 532,99; 3113,187;  342,162; 9986,318; 0,54162
 533,58; 3218,989;  372,468;10193,546; 0,53784
 534,16; 3135,418;  332,112; 9991,844; 0,53729
 534,75; 3181,924;  369,301;10039,107; 0,53631
 535,33; 3082,146;  325,694; 9797,634; 0,53609
 535,92; 2980,233;  313,586; 9428,243; 0,53377
 536,50; 2910,319;  342,084; 9137,723; 0,53463
 537,08; 2906,441;  307,677; 9259,770; 0,53716
 537,67; 3126,157;  359,655; 9875,081; 0,53650
 538,25; 3213,290;  343,448;10185,392; 0,53522
 538,84; 3298,251;  366,201;10378,470; 0,53336
 539,42; 3288,239;  338,703;10406,311; 0,53317
 540,00; 3259,922;  346,201;10308,475; 0,53391
 540,59; 3361,795;  357,330;10646,413; 0,53461
 541,17; 3456,790;  357,702;10925,381; 0,53275
 541,76; 3574,188;  406,348;11157,524; 0,53069
 542,34; 3529,673;  349,575;11150,021; 0,53100
 542,92; 3545,219;  323,025;11231,487; 0,52961
 543,51; 3622,844;  340,954;11483,552; 0,53086
 544,09; 3732,560;  342,869;11768,570; 0,52772
 544,68; 3746,851;  338,745;11846,358; 0,52847
 545,26; 3652,461;  322,037;11528,122; 0,52695
 545,84; 3608,178;  345,898;11355,218; 0,52824
 546,43; 3689,396;  352,237;11633,034; 0,52896
 547,01; 3889,800;  341,794;12328,290; 0,52871
 547,59; 4182,021;  333,287;13295,950; 0,52738
 548,18; 4251,738;  319,020;13477,768; 0,52452
 548,76; 4124,535;  343,821;12956,009; 0,52322
 549,34; 4107,325;  347,592;12959,278; 0,52562
 549,93; 4220,323;  331,908;13396,520; 0,52632
 550,51; 4326,057;  341,259;13655,715; 0,52392
 551,09; 4428,929;  332,512;14064,419; 0,52533
 551,68; 4793,866;  325,956;15313,372; 0,52562
 552,26; 5043,235;  319,078;16054,329; 0,52255
 552,84; 5072,305;  330,176;16126,793; 0,52259
 553,43; 5216,025;  330,518;16609,824; 0,52273
 554,01; 5305,656;  327,864;16846,107; 0,52093
 554,59; 5435,459;  334,176;17304,756; 0,52202
 555,18; 5692,036;  315,864;18210,252; 0,52224
 555,76; 5863,286;  296,268;18770,006; 0,52093
 556,34; 5911,745;  334,064;18803,180; 0,51999
 556,93; 5975,937;  332,732;19037,109; 0,52042
 557,51; 6138,645;  379,596;19407,863; 0,51905
 558,09; 6165,997;  325,126;19653,461; 0,51972
 558,68; 6139,724;  310,223;19578,646; 0,51921
 559,26; 6270,444;  305,494;20079,125; 0,52048
 559,84; 6554,220;  338,257;20928,541; 0,52015
 560,42; 6795,519;  323,273;21632,443; 0,51751
 561,01; 6867,179;  329,274;21801,416; 0,51644
 561,59; 6868,885;  343,752;21761,336; 0,51618
 562,17; 6869,560;  320,015;21822,777; 0,51628
 562,75; 6976,705;  303,459;22212,414; 0,51628
 563,34; 7238,428;  350,306;22840,463; 0,51389
 563,92; 7375,044;  334,385;23309,400; 0,51364
 564,50; 7539,306;  347,287;23816,904; 0,51366
 565,08; 7597,149;  332,575;23990,188; 0,51276
 565,67; 7728,416;  315,524;24407,879; 0,51189
 566,25; 7916,152;  324,361;25043,109; 0,51268
 566,83; 8212,109;  310,043;26002,693; 0,51207
 567,41; 8502,243;  307,694;26864,346; 0,51065
 568,00; 8727,152;  318,602;27578,098; 0,51080
 568,58; 9091,592;  330,325;28691,645; 0,51016
 569,16; 9569,100;  308,204;30254,402; 0,50969
 569,74;10089,717;  323,078;31694,836; 0,50679
 570,33;10267,970;  307,979;32238,350; 0,50595
 570,91;10629,812;  335,354;33287,762; 0,50528
 571,49;10975,438;  365,136;34196,570; 0,50359
 572,07;10795,907;  409,648;33379,770; 0,50166
 572,65;10581,873;  325,620;33166,969; 0,50543
 573,24;11301,651;  314,094;35402,422; 0,50426
 573,82;11911,083;  345,978;36940,250; 0,50026
 574,40;11997,982;  307,643;37206,457; 0,49919
 574,98;11773,375;  325,149;36321,063; 0,49751
 575,56;11386,772;  342,797;35305,594; 0,50048
 576,15;11696,855;  331,283;36444,941; 0,50208
 576,73;12336,722;  345,304;38271,254; 0,50007
 577,31;13138,192;  332,864;40730,934; 0,49897
 577,89;13567,219;  434,001;41372,285; 0,49376
 578,47;12443,681;  342,360;38100,273; 0,49418
 579,05;11930,116;  335,571;36961,430; 0,49953
 579,64;12302,844;  327,978;38149,742; 0,49947
 580,22;12600,376;  315,740;38993,223; 0,49810
 580,80;13354,625;  321,439;41491,742; 0,49953
 581,38;14557,996;  336,699;44793,004; 0,49499
 581,96;14253,407;  345,000;43209,230; 0,48882
 582,54;13039,984;  320,162;39879,230; 0,49277
 583,12;12294,257;  334,679;37817,656; 0,49612
 583,71;12356,974;  348,958;38114,020; 0,49762
 584,29;12950,785;  366,913;39877,848; 0,49690
 584,87;13456,885;  312,704;41334,879; 0,49429
 585,45;13573,572;  339,094;41426,105; 0,49200
 586,03;13120,170;  329,060;40190,816; 0,49365
 586,61;13104,626;  324,046;40341,074; 0,49569
 587,19;13471,671;  343,024;41367,223; 0,49482
 587,77;13295,368;  290,143;40869,516; 0,49419
 588,35;13130,232;  318,539;40352,125; 0,49482
 588,94;13057,074;  349,931;40041,684; 0,49465
 589,52;13043,578;  300,891;40129,879; 0,49494
 590,10;13072,742;  301,820;40146,281; 0,49415
 590,68;13149,386;  373,949;40275,145; 0,49461
 591,26;13169,055;  317,385;40355,266; 0,49351
 591,84;13204,472;  322,392;40498,332; 0,49398
 592,42;13531,488;  344,590;41463,688; 0,49390
 593,00;13805,625;  360,912;42085,039; 0,49184
 593,58;13596,887;  342,212;41580,227; 0,49293
 594,16;13477,599;  344,508;41272,152; 0,49365
 594,74;13605,986;  355,773;41625,711; 0,49341
 595,32;13585,971;  341,253;41529,727; 0,49273
 595,90;13535,299;  325,978;41413,207; 0,49283
 596,49;13392,120;  296,176;41045,473; 0,49298
 597,07;13505,940;  292,327;41379,789; 0,49269
 597,65;13498,468;  300,479;41331,523; 0,49260
 598,23;13554,828;  299,564;41577,086; 0,49333
 598,81;13674,172;  308,069;41853,652; 0,49252
 599,39;13706,954;  320,103;41912,695; 0,49234
 599,97;13654,127;  322,623;41645,785; 0,49131
 600,55;13712,965;  314,854;41803,969; 0,49089
 601,13;13669,245;  328,370;41685,090; 0,49136
 601,71;13633,343;  319,533;41543,684; 0,49085
 602,29;13734,426;  325,929;41870,480; 0,49113
 602,87;13738,026;  312,996;41923,664; 0,49129
 603,45;13706,774;  325,775;41771,234; 0,49099
 604,03;13649,646;  321,136;41569,832; 0,49063
 604,61;13722,741;  356,322;41745,887; 0,49088
 605,19;13711,622;  323,982;41766,016; 0,49074
 605,77;13786,947;  326,862;41873,930; 0,48949
 606,35;13765,237;  319,249;41888,105; 0,49018
 606,93;13728,531;  313,952;41878,719; 0,49115
 607,51;13698,076;  324,376;41718,586; 0,49069
 608,09;13708,817;  311,962;41753,996; 0,49044
 608,67;13638,111;  322,717;41587,102; 0,49122
 609,25;13649,083;  331,263;41568,695; 0,49086
 609,83;13626,659;  317,536;41591,645; 0,49153
 610,41;13592,292;  303,102;41406,539; 0,49038
 610,99;13607,929;  329,845;41430,703; 0,49072
 611,57;13574,554;  296,668;41312,484; 0,48982
 612,14;13570,019;  327,389;41321,168; 0,49074
 612,72;13498,824;  311,352;41132,063; 0,49072
 613,30;13548,717;  338,004;41230,605; 0,49072
 613,88;13479,315;  304,866;41069,121; 0,49055
 614,46;13358,850;  317,355;40657,109; 0,49041
 615,04;13510,660;  390,636;40986,840; 0,49055
 615,62;13314,352;  316,223;40512,039; 0,49030
 616,20;13276,434;  328,045;40450,391; 0,49117
 616,78;13288,912;  340,163;40455,777; 0,49109
 617,36;13234,160;  313,250;40316,891; 0,49081
 617,94;13144,133;  298,413;39993,602; 0,48998
 618,52;13084,445;  316,710;39775,777; 0,49003
 619,10;13062,825;  310,413;39729,207; 0,49011
 619,67;13015,930;  336,620;39548,621; 0,49032
 620,25;12992,942;  294,345;39558,551; 0,49024
 620,83;12915,902;  342,349;39293,797; 0,49107
 621,41;12928,769;  341,967;39334,578; 0,49107
 621,99;12950,374;  334,842;39444,766; 0,49138
 622,57;12893,198;  316,482;39241,633; 0,49066
 623,15;12995,281;  317,151;39589,309; 0,49103
 623,73;12992,579;  297,936;39630,352; 0,49113
 624,30;13030,445;  319,229;39719,484; 0,49131
 624,88;12927,047;  308,892;39418,344; 0,49129
 625,46;12931,850;  287,449;39491,773; 0,49144
 626,04;13075,989;  338,445;39816,785; 0,49127
 626,62;13053,836;  319,101;39770,898; 0,49108
 627,20;13120,259;  347,512;39916,352; 0,49107
 627,78;13130,826;  323,829;39982,750; 0,49089
 628,35;13143,987;  369,525;39958,555; 0,49123
 628,93;13157,901;  298,776;40187,492; 0,49164
 629,51;13254,360;  340,636;40457,410; 0,49227
 630,09;13200,302;  306,174;40318,043; 0,49180
 630,67;13311,471;  335,580;40651,246; 0,49234
 631,25;13343,246;  334,271;40764,391; 0,49246
 631,82;13427,273;  331,582;41041,664; 0,49257
 632,40;13434,172;  332,740;41070,559; 0,49268
 632,98;13465,294;  322,858;41180,293; 0,49260
 633,56;13544,869;  336,585;41407,766; 0,49269
 634,14;13608,972;  328,623;41658,645; 0,49306
 634,71;13677,365;  329,821;41828,160; 0,49263
 635,29;13687,753;  309,582;41882,195; 0,49241
 635,87;13715,981;  319,399;41937,875; 0,49229
 636,45;13815,611;  345,444;42147,574; 0,49183
 637,03;13843,689;  324,225;42377,664; 0,49284
 637,60;13918,501;  387,676;42442,207; 0,49249
 638,18;13889,917;  322,112;42542,125; 0,49301
 638,76;13927,233;  317,712;42688,344; 0,49322
 639,34;14017,946;  355,373;42919,641; 0,49351
 639,91;14022,726;  342,463;42960,344; 0,49350
 640,49;14013,979;  332,583;42977,680; 0,49374
 641,07;14026,080;  317,446;43053,051; 0,49380
 641,65;14061,279;  323,705;43054,727; 0,49283
 642,22;14042,578;  330,095;42969,789; 0,49270
 642,80;14071,617;  309,574;43106,195; 0,49273
 643,38;14070,133;  294,997;43093,547; 0,49233
 643,96;14147,802;  334,317;43347,492; 0,49330
 644,53;14109,014;  314,966;43184,020; 0,49245
 645,11;14139,149;  333,772;43354,309; 0,49363
 645,69;14196,868;  352,438;43445,477; 0,49313
 646,27;14152,174;  329,755;43364,070; 0,49323
 646,84;14227,966;  343,851;43576,367; 0,49329
 647,42;14131,162;  325,864;43251,027; 0,49267
 648,00;14150,234;  283,483;43358,266; 0,49225
 648,57;14247,239;  312,573;43627,871; 0,49254
 649,15;14256,198;  311,762;43661,477; 0,49259
 649,73;14294,831;  339,455;43789,941; 0,49325
 650,31;14268,604;  310,378;43735,688; 0,49291
 650,88;14296,482;  332,071;43831,801; 0,49346
 651,46;14311,190;  327,577;43935,359; 0,49394
 652,04;14264,956;  292,353;43873,652; 0,49402
 652,61;14377,742;  318,683;44179,199; 0,49412
 653,19;14451,001;  340,782;44350,820; 0,49402
 653,77;14447,979;  308,318;44411,324; 0,49403
 654,34;14521,698;  320,458;44727,211; 0,49512
 654,92;15013,461;  321,574;46571,719; 0,49804
 655,50;18758,379;  313,950;57444,570; 0,49100
 656,07;20335,379;  307,380;60268,895; 0,47624
 656,65;16664,285;  299,769;49930,965; 0,48185
 657,23;15133,220;  460,825;46215,434; 0,49393
 657,80;14908,716;  330,195;45891,578; 0,49488
 658,38;14921,308;  332,308;45956,336; 0,49517
 658,95;15018,703;  329,914;46250,957; 0,49503
 659,53;15027,122;  305,723;46266,742; 0,49444
 660,11;15119,321;  295,209;46640,125; 0,49503
 660,68;15351,690;  364,466;47165,227; 0,49453
 661,26;15460,532;  315,738;47669,266; 0,49509
 661,84;15557,284;  339,481;47928,133; 0,49515
 662,41;15706,780;  304,854;48444,648; 0,49493
 662,99;15794,109;  310,867;48809,129; 0,49586
 663,56;15932,524;  300,030;49197,164; 0,49526
 664,14;16100,523;  305,529;49640,113; 0,49463
 664,72;16199,332;  312,342;49911,949; 0,49444
 665,29;16399,229;  316,532;50538,797; 0,49454
 665,87;16532,086;  316,858;50927,691; 0,49432
 666,44;16634,355;  320,804;51239,988; 0,49433
 667,02;16733,564;  316,233;51415,176; 0,49311
 667,59;16875,863;  297,903;51851,457; 0,49273
 668,17;16999,152;  311,462;52243,398; 0,49304
 668,75;17107,162;  326,259;52469,746; 0,49238
 669,32;17105,000;  328,418;52486,012; 0,49261
 669,90;17139,406;  306,151;52673,059; 0,49289
 670,47;17156,898;  283,951;52748,133; 0,49267
 671,05;17171,486;  315,813;52759,055; 0,49294
 671,62;17133,684;  293,350;52670,484; 0,49279
 672,20;17209,889;  303,629;52915,754; 0,49304
 672,77;17174,863;  325,582;52726,363; 0,49276
 673,35;17164,873;  330,765;52685,742; 0,49277
 673,93;17221,232;  307,001;53014,137; 0,49362
 674,50;17228,914;  317,357;53024,859; 0,49369
 675,08;17237,436;  312,307;53038,137; 0,49349
 675,65;17275,979;  277,426;53216,438; 0,49336
 676,23;17400,225;  323,072;53543,258; 0,49366
 676,80;17495,516;  322,498;53900,023; 0,49414
 677,38;17475,031;  293,385;53868,008; 0,49389
 677,95;17618,168;  320,784;54339,199; 0,49456
 678,53;17771,869;  315,324;54684,531; 0,49339
 679,10;17781,098;  334,090;54514,672; 0,49212
 679,68;17869,828;  304,076;54926,871; 0,49271
 680,25;18113,117;  348,572;55554,227; 0,49243
 680,83;17970,473;  295,945;55138,211; 0,49177
 681,40;18103,887;  335,938;55532,293; 0,49227
 681,98;18011,576;  278,101;55335,977; 0,49203
 682,55;18068,701;  314,640;55580,426; 0,49316
 683,12;18107,867;  304,096;55685,441; 0,49285
 683,70;18152,566;  319,866;55718,035; 0,49228
 684,27;18116,371;  297,935;55712,422; 0,49275
 684,85;18260,607;  320,288;56038,406; 0,49217
 685,42;18232,457;  299,078;55991,926; 0,49214
 686,00;18260,846;  322,617;56050,535; 0,49229
 686,57;18475,381;  327,113;56713,582; 0,49234
 687,15;18418,256;  310,196;56621,039; 0,49272
 687,72;18473,373;  295,796;56781,586; 0,49240
 688,29;18483,697;  308,812;56715,680; 0,49186
 688,87;18551,217;  313,068;56937,207; 0,49202
 689,44;18584,775;  277,837;56983,203; 0,49101
 690,02;18695,938;  311,190;57270,969; 0,49111
 690,59;18715,930;  317,683;57420,836; 0,49188
 691,17;18803,076;  310,463;57627,164; 0,49128
 691,74;18859,164;  318,976;57871,406; 0,49195
 692,31;18897,760;  299,322;57852,164; 0,49059
 692,89;18965,336;  289,585;58121,703; 0,49089
 693,46;19130,117;  300,031;58590,320; 0,49074
 694,04;19142,234;  306,357;58540,563; 0,49019
 694,61;19216,422;  325,723;58794,379; 0,49068
 695,18;19281,375;  301,256;59028,563; 0,49054
 695,76;19304,293;  315,192;59022,719; 0,49019
 696,33;19373,766;  307,038;59281,770; 0,49039
 696,90;19502,328;  312,088;59613,645; 0,48999
 697,48;19522,420;  303,791;59606,820; 0,48935
 698,05;19590,465;  291,743;59763,484; 0,48878
 698,62;19687,711;  327,446;60044,328; 0,48919
 699,20;19713,920;  299,856;60113,863; 0,48869
 699,77;19809,922;  314,795;60333,434; 0,48836
 700,35;19838,625;  292,728;60468,285; 0,48836
 700,92;19798,963;  317,694;60292,422; 0,48835
 701,49;19913,762;  311,787;60598,523; 0,48792
 702,07;20025,902;  335,063;60971,645; 0,48847
 702,64;20001,428;  296,679;60882,664; 0,48780
 703,21;20038,535;  330,262;60962,133; 0,48805
 703,78;20104,371;  326,505;61124,387; 0,48771
 704,36;20084,820;  325,258;61058,793; 0,48765
 704,93;20121,920;  308,884;61206,875; 0,48765
 705,50;20127,398;  289,800;61101,320; 0,48650
 706,08;20230,000;  300,853;61521,926; 0,48741
 706,65;20280,270;  326,393;61438,508; 0,48610
 707,22;20391,199;  324,602;61828,801; 0,48643
 707,80;20412,564;  330,628;61867,340; 0,48633
 708,37;20373,057;  313,505;61605,164; 0,48508
 708,94;20290,955;  308,571;61356,707; 0,48503
 709,51;20408,748;  306,300;61705,441; 0,48491
 710,09;20453,043;  323,966;61762,090; 0,48461
 710,66;20467,465;  316,193;61914,949; 0,48527
 711,23;20522,611;  328,865;62005,336; 0,48490
 711,81;20521,504;  314,325;61964,410; 0,48443
 712,38;20519,922;  292,038;62005,492; 0,48443
 712,95;20665,320;  327,621;62353,750; 0,48427
 713,52;20649,186;  327,043;62318,785; 0,48436
 714,10;20632,639;  312,710;62218,641; 0,48381
 714,67;20721,684;  331,232;62476,828; 0,48398
 715,24;20674,199;  323,915;62402,285; 0,48437
 715,81;20550,826;  287,431;62018,852; 0,48379
 716,38;20715,797;  307,131;62531,781; 0,48415
 716,96;20746,369;  318,920;62580,766; 0,48401
 717,53;20755,615;  304,943;62558,520; 0,48346
 718,10;20814,715;  323,469;62643,547; 0,48306
 718,67;20782,557;  330,276;62472,113; 0,48264
 719,25;20953,555;  298,375;62944,988; 0,48187
 719,82;20917,367;  377,228;62808,266; 0,48280
 720,39;20780,340;  303,241;62398,375; 0,48179
 720,96;20963,932;  296,244;62881,996; 0,48118
 721,53;20922,564;  299,480;62650,535; 0,48049
 722,11;20937,867;  281,389;62742,840; 0,48056
 722,68;20958,191;  327,785;62705,746; 0,48052
 723,25;21050,852;  307,952;63116,324; 0,48115
 723,82;21151,613;  331,174;63303,469; 0,48066
 724,39;21127,658;  316,807;63204,863; 0,48028
 724,96;21255,898;  305,220;63551,828; 0,47984
 725,54;21273,334;  321,836;63525,164; 0,47952
 726,11;21271,143;  291,179;63470,418; 0,47877
 726,68;21260,352;  288,705;63350,008; 0,47813
 727,25;21329,934;  297,305;63504,883; 0,47788
 727,82;21261,105;  289,544;63162,441; 0,47683
 728,39;21411,295;  299,681;63499,219; 0,47619
 728,96;21480,977;  299,283;63776,574; 0,47666
 729,54;21555,969;  300,103;63968,535; 0,47645
 730,11;21587,998;  337,509;64052,082; 0,47687
 730,68;21586,906;  285,535;63979,152; 0,47569
 731,25;21580,059;  318,545;63756,156; 0,47475
 731,82;21735,021;  318,208;64444,973; 0,47628
 732,39;21719,576;  268,700;64245,633; 0,47458
 732,96;21753,043;  307,720;64394,926; 0,47544
 733,53;21696,318;  295,169;64226,301; 0,47528
 734,10;21914,387;  314,159;64681,398; 0,47421
 734,68;21883,879;  308,575;64579,781; 0,47406
 735,25;21868,822;  290,588;64659,172; 0,47466
 735,82;21863,984;  296,231;64426,020; 0,47325
 736,39;21994,113;  324,217;64790,184; 0,47347
 736,96;21938,662;  289,826;64522,348; 0,47232
 737,53;21995,090;  332,999;64684,570; 0,47286
 738,10;21950,613;  286,965;64524,641; 0,47206
 738,67;21988,586;  313,768;64547,660; 0,47181
 739,24;22038,385;  318,754;64647,926; 0,47156
 739,81;21932,047;  286,317;64246,738; 0,47054
 740,38;21818,111;  265,693;63894,938; 0,47016
 740,95;21871,121;  313,810;64094,309; 0,47109
 741,52;21923,270;  294,572;64138,941; 0,47009
 742,09;21738,086;  335,325;63400,000; 0,46932
 742,66;21883,127;  287,955;63930,457; 0,46939
 743,23;21840,043;  325,504;63861,508; 0,47029
 743,80;21887,018;  321,287;63920,262; 0,46969
 744,37;21747,408;  306,657;63629,094; 0,47032
 744,94;21684,629;  312,923;63506,762; 0,47084
 745,51;21722,072;  293,406;63430,633; 0,46929
 746,09;21761,533;  343,325;63432,191; 0,46917
 746,66;21529,803;  311,835;62717,250; 0,46852
 747,23;21643,639;  367,531;63029,645; 0,46911
 747,80;21521,641;  301,000;62722,141; 0,46857
 748,36;21376,590;  299,373;62309,301; 0,46865
 748,93;21415,576;  285,269;62515,016; 0,46909
 749,50;21417,197;  330,052;62509,871; 0,46963
 750,07;21411,387;  315,115;62458,895; 0,46919
 750,64;21324,621;  299,761;62287,793; 0,46957
 751,21;21187,014;  322,134;61758,969; 0,46901
 751,78;21172,467;  316,247;61843,027; 0,46983
 752,35;21155,555;  316,670;61687,902; 0,46909
 752,92;21100,830;  313,349;61531,895; 0,46908
 753,49;21079,316;  395,979;61249,926; 0,46867
 754,06;21024,459;  324,078;61286,328; 0,46908
 754,63;21026,025;  336,594;61323,238; 0,46949
 755,20;20816,641;  294,201;60628,602; 0,46834
 755,77;20965,488;  350,320;61044,719; 0,46896
 756,34;20919,471;  323,436;60891,141; 0,46846
 756,91;20806,646;  299,796;60502,496; 0,46772
 757,48;20869,535;  302,325;60617,301; 0,46725
 758,05;20837,432;  342,878;60616,121; 0,46849
 758,62;20619,000;  301,748;59962,781; 0,46783
 759,19;20689,742;  342,804;60078,652; 0,46774
 759,75;20610,332;  293,597;59875,891; 0,46726
 760,32;20568,314;  310,073;59687,145; 0,46702
 760,89;20472,375;  312,382;59418,660; 0,46714
 761,46;20378,748;  325,175;59138,051; 0,46728
 762,03;20373,736;  318,215;59301,371; 0,46849
 762,60;20288,959;  299,471;59012,582; 0,46793
 763,17;20320,664;  313,260;59051,059; 0,46773
 763,74;20342,697;  318,523;59026,262; 0,46714
 764,31;20250,955;  290,586;58810,379; 0,46713
 764,87;20282,664;  307,496;58805,121; 0,46665
 765,44;20163,451;  300,535;58436,098; 0,46640
 766,01;20067,660;  317,691;58118,613; 0,46637
 766,58;20228,801;  425,667;58303,934; 0,46578
 767,15;20047,334;  321,290;57853,297; 0,46487
 767,72;20017,445;  299,160;57847,125; 0,46516
 768,28;20029,635;  315,279;57838,043; 0,46506
 768,85;20049,428;  311,225;57804,789; 0,46431
 769,42;19981,389;  309,198;57498,457; 0,46346
 769,99;19850,332;  266,828;57202,051; 0,46349
 770,56;19967,021;  308,844;57456,320; 0,46345
 771,13;19872,402;  303,447;57146,938; 0,46311
 771,69;19849,393;  294,733;57023,488; 0,46255
 772,26;19833,102;  290,979;56930,391; 0,46215
 772,83;19784,322;  289,812;56740,016; 0,46175
 773,40;19781,051;  300,031;56754,953; 0,46209
 773,97;19754,137;  321,824;56645,035; 0,46216
 774,53;19702,973;  314,214;56500,926; 0,46208
 775,10;19623,535;  294,720;56314,457; 0,46214
 775,67;19666,518;  311,183;56417,555; 0,46221
 776,24;19631,250;  324,866;56272,063; 0,46208
 776,81;19520,369;  296,098;56015,332; 0,46216
 777,37;19551,701;  294,718;56125,988; 0,46229
 777,94;19522,311;  286,967;55903,113; 0,46110
 778,51;19511,029;  318,080;55942,879; 0,46213
 779,08;19427,898;  330,286;55651,563; 0,46191
 779,64;19390,346;  284,849;55593,563; 0,46164
 780,21;19452,932;  326,649;55734,867; 0,46194
 780,78;19410,221;  304,198;55697,520; 0,46229
 781,35;19369,076;  302,508;55430,723; 0,46110
 781,91;19334,350;  282,697;55245,191; 0,46013
 782,48;19305,285;  291,540;55172,008; 0,46035
 783,05;19148,822;  294,483;54661,047; 0,45992
 783,62;19162,338;  316,959;54645,105; 0,45982
 784,18;19110,328;  309,535;54466,676; 0,45948
 784,75;19014,496;  297,952;54159,391; 0,45905
 785,32;18999,379;  315,954;54133,324; 0,45947
 785,88;18946,234;  296,394;53863,848; 0,45823
 786,45;18961,834;  330,633;53940,609; 0,45900
 787,02;18901,336;  286,043;53828,840; 0,45883
 787,58;18866,031;  339,116;53631,488; 0,45886
 788,15;18737,063;  325,032;53241,086; 0,45849
 788,72;18612,723;  300,505;52868,504; 0,45798
 789,29;18555,654;  291,204;52758,941; 0,45829
 789,85;18489,047;  316,500;52526,379; 0,45834
 790,42;18402,053;  300,100;52300,992; 0,45829
 790,99;18368,641;  332,619;52053,645; 0,45753
 791,55;18263,986;  307,239;51812,156; 0,45762
 792,12;18153,203;  307,578;51564,309; 0,45822
 792,69;18073,398;  323,698;51247,180; 0,45773
 793,25;18020,986;  297,541;51005,109; 0,45652
 793,82;18050,869;  330,087;51047,500; 0,45667
 794,38;17928,471;  281,243;50766,188; 0,45649
 794,95;17789,234;  311,536;50358,746; 0,45690
 795,52;17660,566;  302,542;49915,789; 0,45610
 796,08;17571,879;  295,108;49663,688; 0,45599
 796,65;17470,406;  336,981;49246,875; 0,45555
 797,22;17397,553;  285,934;49103,797; 0,45529
 797,78;17301,561;  310,187;48690,797; 0,45444
 798,35;17228,637;  320,543;48505,617; 0,45482
 798,91;17191,629;  336,272;48303,512; 0,45421
 799,48;17115,945;  323,579;48135,617; 0,45443
 800,05;16982,293;  304,558;47800,164; 0,45452
 800,61;16845,535;  311,774;47427,004; 0,45479
 801,18;16817,908;  325,977;47309,113; 0,45467
 801,74;16682,467;  326,350;46846,953; 0,45397
 802,31;16614,816;  336,183;46716,785; 0,45472
 802,88;16463,445;  308,802;46326,848; 0,45463
 803,44;16452,725;  321,415;46187,004; 0,45382
 804,01;16373,386;  315,745;45997,039; 0,45406
 804,57;16292,212;  320,844;45672,934; 0,45326
 805,14;16209,987;  311,717;45472,922; 0,45342
 805,70;16101,626;  326,073;45106,684; 0,45311
 806,27;16114,962;  298,593;45083,895; 0,45203
 806,83;16026,497;  325,882;44761,727; 0,45182
 807,40;15875,479;  307,358;44412,215; 0,45225
 807,96;15958,425;  397,191;44449,367; 0,45192
 808,53;15859,171;  298,201;44322,324; 0,45165
 809,10;15811,100;  319,820;44173,082; 0,45191
 809,66;15784,502;  322,380;44066,234; 0,45165
 810,23;15711,088;  358,999;43758,402; 0,45132
 810,79;15692,130;  323,782;43689,832; 0,45052
 811,36;15627,585;  310,285;43531,344; 0,45051
 811,92;15721,281;  319,544;43705,250; 0,44978
 812,49;15644,710;  294,841;43474,938; 0,44918
 813,05;15714,622;  333,493;43582,422; 0,44899
 813,62;15648,895;  315,176;43412,680; 0,44880
 814,18;15601,720;  332,002;43183,230; 0,44813
 814,75;15495,835;  314,925;42901,285; 0,44797
 815,31;15557,067;  355,635;42955,973; 0,44753
 815,87;15517,977;  350,794;42885,309; 0,44784
 816,44;15374,358;  315,810;42549,320; 0,44787
 817,00;15308,991;  303,363;42329,133; 0,44726
 817,57;15287,510;  324,169;42253,355; 0,44749
 818,13;15132,716;  324,656;41770,871; 0,44699
 818,70;15052,301;  348,135;41565,949; 0,44764
 819,26;15120,597;  379,891;41562,035; 0,44619
 819,83;15039,669;  343,678;41415,488; 0,44634
 820,39;14997,715;  347,317;41334,035; 0,44679
 820,95;14917,394;  322,510;41081,191; 0,44602
 821,52;14806,242;  315,366;40740,387; 0,44556
 822,08;14812,954;  334,492;40737,992; 0,44570
 822,65;14744,504;  329,988;40596,523; 0,44614
 823,21;14635,159;  317,251;40203,523; 0,44494
 823,78;14727,408;  356,007;40438,852; 0,44546
 824,34;14634,167;  307,374;40183,773; 0,44457
 824,90;14716,929;  365,286;40291,438; 0,44436
 825,47;14641,048;  347,563;40073,594; 0,44394
 826,03;14573,646;  319,152;39918,398; 0,44374
 826,60;14492,386;  306,715;39686,176; 0,44342
 827,16;14589,312;  351,624;39908,438; 0,44378
 827,72;14557,561;  334,517;39787,492; 0,44309
 828,29;14420,619;  304,930;39437,758; 0,44284
 828,85;14505,769;  321,210;39617,621; 0,44254
 829,41;14413,784;  315,806;39406,234; 0,44291
 829,98;14471,270;  341,352;39448,457; 0,44212
 830,54;14435,495;  323,148;39348,680; 0,44175
 831,10;14401,490;  323,168;39261,637; 0,44183
 831,67;14443,169;  351,097;39286,512; 0,44137
 832,23;14409,651;  336,750;39184,047; 0,44098
 832,79;14361,934;  345,636;39022,223; 0,44081
 833,36;14367,946;  342,219;39036,254; 0,44072
 833,92;14347,205;  336,142;38925,148; 0,43999
 834,48;14297,021;  301,575;38779,023; 0,43922
 835,05;14306,986;  328,304;38773,152; 0,43937
 835,61;14330,335;  323,150;38816,496; 0,43903
 836,17;14333,234;  325,660;38845,570; 0,43932
 836,74;14340,413;  328,649;38814,098; 0,43880
 837,30;14283,262;  322,926;38637,809; 0,43847
 837,86;14257,814;  318,565;38512,160; 0,43775
 838,43;14203,456;  305,841;38363,832; 0,43751
 838,99;14254,535;  318,417;38441,797; 0,43705
 839,55;14223,391;  299,417;38408,387; 0,43726
 840,11;14221,343;  321,033;38362,875; 0,43724
 840,68;14204,552;  336,363;38269,094; 0,43699
 841,24;14120,551;  285,552;38122,633; 0,43694
 841,80;14113,906;  320,108;37978,410; 0,43618
 842,36;14150,102;  321,694;38083,344; 0,43628
 842,93;14150,327;  319,411;38053,176; 0,43588
 843,49;14153,670;  366,913;37923,219; 0,43522
 844,05;14094,306;  305,716;37885,328; 0,43543
 844,61;14055,291;  314,599;37720,914; 0,43494
 845,18;14013,627;  301,592;37579,570; 0,43435
 845,74;14015,995;  284,378;37592,324; 0,43408
 846,30;14016,841;  337,548;37492,375; 0,43395
 846,86;13967,503;  321,694;37375,344; 0,43383
 847,43;13996,339;  321,333;37395,883; 0,43315
 847,99;13889,284;  309,936;37079,863; 0,43261
 848,55;13886,910;  312,666;37081,375; 0,43276
 849,11;13898,299;  320,285;37038,496; 0,43205
 849,67;13848,555;  300,368;36913,082; 0,43175
 850,24;13789,430;  301,304;36744,723; 0,43167
 850,80;13738,349;  286,930;36617,105; 0,43150
 851,36;13848,388;  347,116;36743,574; 0,43068
 851,92;13764,427;  314,449;36580,047; 0,43077
 852,48;13706,839;  305,809;36449,813; 0,43090
 853,04;13703,918;  328,915;36354,129; 0,43031
 853,61;13685,424;  318,231;36297,203; 0,43001
 854,17;13725,756;  400,897;36161,066; 0,42874
 854,73;13595,558;  299,187;36036,578; 0,42939
 855,29;13561,200;  312,773;35881,414; 0,42890
 855,85;13497,249;  302,419;35707,727; 0,42866
 856,41;13468,185;  292,769;35638,445; 0,42857
 856,97;13505,894;  304,102;35680,738; 0,42808
 857,54;13446,869;  295,658;35460,859; 0,42715
 858,10;13452,225;  333,714;35406,227; 0,42708
 858,66;13374,061;  308,520;35188,742; 0,42645
 859,22;13409,249;  324,280;35154,438; 0,42518
 859,78;13291,172;  298,046;34900,406; 0,42539
 860,34;13288,967;  301,792;34857,613; 0,42501
 860,90;13337,272;  338,488;34910,375; 0,42482
 861,46;13235,314;  295,754;34708,359; 0,42480
 862,02;13189,000;  317,067;34529,262; 0,42454
 862,59;13135,379;  310,633;34362,523; 0,42409
 863,15;13097,505;  293,426;34337,504; 0,42469
 863,71;13089,297;  280,842;34332,258; 0,42464
 864,27;13200,663;  374,218;34430,199; 0,42409
 864,83;13015,338;  311,931;34005,742; 0,42363
 865,39;13055,780;  339,177;34049,379; 0,42339
 865,95;12981,409;  316,807;33897,254; 0,42349
 866,51;12960,365;  305,200;33828,723; 0,42308
 867,07;12908,678;  312,336;33668,098; 0,42293
 867,63;12861,649;  317,432;33554,676; 0,42318
 868,19;12884,875;  289,338;33597,973; 0,42234
 868,75;12838,377;  301,998;33463,352; 0,42246
 869,31;12883,680;  329,777;33494,523; 0,42190
 869,87;12815,055;  316,560;33335,813; 0,42191
 870,43;12828,197;  356,853;33308,383; 0,42196
 870,99;12780,613;  315,452;33220,332; 0,42156
 871,55;12727,908;  312,249;33108,828; 0,42186
 872,11;12751,577;  316,338;33088,535; 0,42085
 872,67;12763,986;  352,711;33102,332; 0,42139
 873,23;12711,712;  299,347;33061,512; 0,42152
 873,79;12754,794;  354,573;32991,648; 0,42028
 874,35;12741,859;  347,159;32961,270; 0,42017
 874,91;12589,106;  297,263;32650,561; 0,42030
 875,47;12585,250;  288,816;32585,131; 0,41937
 876,03;12654,736;  327,973;32714,684; 0,41952
 876,59;12638,977;  322,643;32636,449; 0,41891
 877,15;12655,826;  324,030;32647,736; 0,41849
 877,71;12718,043;  322,240;32759,000; 0,41776
 878,27;12706,767;  281,653;32754,273; 0,41722
 878,83;12804,340;  319,673;32887,520; 0,41641
 879,39;12755,776;  297,736;32804,969; 0,41653
 879,95;12859,253;  321,370;33038,867; 0,41656
 880,51;12916,483;  341,356;33096,695; 0,41577
 881,07;12914,613;  333,153;33095,410; 0,41564
 881,63;12932,063;  288,909;33150,910; 0,41484
 882,19;13045,733;  316,446;33393,605; 0,41472
 882,75;13103,307;  335,680;33501,969; 0,41459
 883,31;13149,793;  318,500;33617,559; 0,41416
 883,87;13170,406;  293,793;33670,785; 0,41365
 884,42;13288,673;  309,203;33887,332; 0,41280
 884,98;13334,286;  280,210;33974,578; 0,41181
 885,54;13416,843;  323,803;34173,340; 0,41251
 886,10;13486,290;  336,520;34298,176; 0,41207
 886,66;13510,773;  316,866;34411,715; 0,41232
 887,22;13542,363;  328,759;34458,691; 0,41211
 887,78;13573,927;  331,806;34497,457; 0,41163
 888,34;13537,390;  305,816;34449,758; 0,41170
 888,89;13553,996;  302,503;34459,141; 0,41121
 889,45;13613,757;  352,143;34489,418; 0,41063
 890,01;13510,666;  315,263;34238,980; 0,41008
 890,57;13449,696;  295,553;34111,547; 0,41006
 891,13;13404,927;  315,993;33997,707; 0,41049
 891,69;13312,479;  305,879;33767,906; 0,41039
 892,25;13247,673;  313,553;33556,363; 0,40996
 892,80;13178,303;  318,526;33397,730; 0,41032
 893,36;13088,569;  326,720;33125,590; 0,40995
 893,92;13012,943;  335,283;32913,453; 0,40989
 894,48;12925,670;  319,859;32666,150; 0,40925
 895,04;12909,113;  323,796;32588,756; 0,40887
 895,60;12831,177;  354,773;32343,150; 0,40890
 896,15;12736,840;  315,370;32119,750; 0,40831
 896,71;12672,300;  349,406;31854,127; 0,40766
 897,27;12610,573;  325,453;31667,689; 0,40675
 897,83;12574,323;  337,246;31560,869; 0,40681
 898,39;12473,723;  330,226;31269,174; 0,40616
 898,94;12495,960;  352,626;31297,063; 0,40624
 899,50;12286,473;  287,546;30850,461; 0,40605
 900,06;12242,350;  292,363;30727,797; 0,40601
 900,62;12277,630;  322,500;30739,631; 0,40556
 901,17;12303,026;  320,186;30802,000; 0,40548
 901,73;12168,903;  295,453;30432,104; 0,40452
 902,29;12158,050;  321,456;30364,086; 0,40451
 902,85;12104,953;  321,973;30208,764; 0,40422
 903,40;12129,810;  392,953;30099,547; 0,40330
 903,96;12048,467;  335,000;30043,344; 0,40419
 904,52;11968,443;  328,823;29813,859; 0,40366
 905,08;11898,529;  307,183;29644,199; 0,40328
 905,63;11941,356;  337,750;29683,807; 0,40296
 906,19;11939,757;  341,419;29614,199; 0,40207
 906,75;11838,354;  315,976;29437,990; 0,40268
 907,30;11837,644;  322,819;29329,543; 0,40124
 907,86;11776,840;  339,146;29184,607; 0,40174
 908,42;11766,590;  363,153;29041,650; 0,40052
 908,98;11717,086;  329,620;29019,066; 0,40130
 909,53;11648,923;  313,676;28824,916; 0,40059
 910,09;11669,343;  352,446;28805,350; 0,40040
 910,65;11645,503;  320,183;28725,104; 0,39934
 911,20;11589,093;  315,103;28542,783; 0,39860
 911,76;11588,757;  321,103;28519,920; 0,39840
 912,32;11588,706;  352,133;28480,619; 0,39851
 912,87;11527,336;  334,750;28316,291; 0,39794
 913,43;11455,066;  325,569;28157,490; 0,39807
 913,99;11450,233;  332,426;28124,311; 0,39790
 914,54;11397,359;  333,346;27947,199; 0,39721
 915,10;11403,640;  344,863;27948,434; 0,39726
 915,66;11325,286;  333,843;27772,287; 0,39730
 916,21;11380,883;  358,893;27821,607; 0,39648
 916,77;11308,310;  329,266;27647,113; 0,39588
 917,32;11261,913;  342,020;27506,791; 0,39579
 917,88;11180,703;  314,479;27318,801; 0,39535
 918,44;11182,693;  330,539;27283,377; 0,39509
 918,99;11114,090;  350,903;27115,893; 0,39563
 919,55;11079,653;  330,373;27002,000; 0,39467
 920,10;11066,276;  329,690;26937,877; 0,39415
 920,66;11037,503;  335,120;26853,430; 0,39407
 921,22;10893,350;  293,323;26517,900; 0,39340
 921,77;11008,823;  339,780;26720,053; 0,39315
 922,33;10867,473;  322,516;26438,211; 0,39386
 922,88;10897,390;  326,373;26443,873; 0,39281
 923,44;10828,423;  339,389;26272,783; 0,39312
 924,00;10844,733;  360,833;26269,199; 0,39292
 924,55;10736,983;  310,946;26086,520; 0,39309
 925,11;10761,816;  327,656;26085,363; 0,39245
 925,66;10702,250;  330,030;25899,340; 0,39185
 926,22;10649,746;  315,150;25805,840; 0,39209
 926,77;10671,644;  342,913;25787,227; 0,39154
 927,33;10616,880;  326,976;25647,494; 0,39106
 927,88;10533,906;  324,806;25408,188; 0,39040
 928,44;10552,557;  308,036;25442,143; 0,38977
 928,99;10515,729;  322,900;25342,744; 0,38999
 929,55;10528,347;  365,373;25320,967; 0,39015
 930,10;10426,800;  333,683;25134,137; 0,39043
 930,66;10445,343;  349,669;25150,053; 0,39032
 931,21;10395,443;  330,066;25002,613; 0,38938
 931,77;10321,856;  331,843;24813,777; 0,38928
 932,32;10294,069;  311,293;24737,750; 0,38861
 932,88;10309,660;  331,919;24742,340; 0,38854
 933,43;10287,896;  354,546;24600,811; 0,38755
 933,99;10214,066;  317,446;24447,779; 0,38708
 934,54;10191,583;  356,553;24343,576; 0,38720
 935,10;10140,093;  325,620;24237,484; 0,38675
 935,65;10115,553;  317,573;24160,721; 0,38623
 936,21;10072,213;  302,919;24081,447; 0,38632
 936,76;10082,433;  357,750;24023,211; 0,38624
 937,32;10011,533;  316,490;23926,971; 0,38656
 937,87;10029,683;  367,013;23831,037; 0,38531
 938,43;10009,490;  337,379;23809,449; 0,38503
 938,98; 9975,973;  346,606;23696,680; 0,38469
 939,53; 9834,916;  307,536;23426,150; 0,38499
 940,09; 9912,013;  364,039;23507,891; 0,38452
 940,64; 9807,819;  330,086;23288,033; 0,38423
 941,20; 9799,050;  327,520;23265,367; 0,38413
 941,75; 9768,180;  335,949;23133,123; 0,38327
 942,30; 9735,450;  326,609;23077,324; 0,38346
 942,86; 9659,173;  316,020;22871,221; 0,38275
 943,41; 9670,696;  323,383;22878,430; 0,38256
 943,97; 9637,477;  328,923;22731,424; 0,38141
 944,52; 9638,080;  349,120;22719,500; 0,38171
 945,07; 9606,330;  328,856;22631,084; 0,38092
 945,63; 9601,500;  361,253;22525,557; 0,37997
 946,18; 9521,023;  313,329;22422,061; 0,38041
 946,74; 9477,109;  329,896;22316,307; 0,38087
 947,29; 9482,116;  345,383;22262,164; 0,37999
 947,84; 9469,246;  345,463;22238,930; 0,38014
 948,40; 9442,790;  354,283;22138,906; 0,37966
 948,95; 9404,433;  374,699;21994,311; 0,37917
 949,50; 9349,007;  320,853;21901,193; 0,37846
 950,06; 9307,797;  315,343;21798,094; 0,37821
 950,61; 9271,803;  317,013;21674,791; 0,37750
 951,16; 9294,399;  341,699;21696,354; 0,37754
 951,72; 9247,680;  328,953;21590,311; 0,37729
 952,27; 9209,403;  316,356;21540,957; 0,37779
 952,82; 9141,899;  341,856;21377,557; 0,37847
 953,38; 9156,166;  347,293;21349,006; 0,37733
 953,93; 9067,467;  316,866;21156,010; 0,37684
 954,48; 9021,050;  304,520;21099,574; 0,37762
 955,03; 9003,876;  320,563;21010,557; 0,37707
 955,59; 8990,656;  337,883;20933,357; 0,37662
 956,14; 8946,727;  324,349;20850,250; 0,37668
 956,69; 8894,706;  313,336;20693,604; 0,37565
 957,24; 8880,020;  324,863;20621,277; 0,37519
 957,80; 8866,144;  332,193;20558,971; 0,37478
 958,35; 8818,757;  345,060;20392,063; 0,37398
 958,90; 8786,053;  328,349;20320,246; 0,37360
 959,46; 8761,916;  314,813;20244,896; 0,37280
 960,01; 8718,656;  321,210;20149,254; 0,37313
 960,56; 8672,140;  311,023;20028,123; 0,37258
 961,11; 8667,757;  341,780;19956,270; 0,37214
 961,66; 8588,727;  297,353;19813,641; 0,37177
 962,22; 8607,920;  327,990;19812,863; 0,37167
 962,77; 8572,970;  332,829;19671,803; 0,37050
 963,32; 8473,240;  307,109;19447,703; 0,36994
 963,87; 8484,257;  324,520;19473,566; 0,37047
 964,43; 8435,767;  314,126;19302,424; 0,36884
 964,98; 8468,273;  368,533;19323,627; 0,36925
 965,53; 8355,986;  307,970;19081,119; 0,36785
 966,08; 8377,856;  346,866;19087,438; 0,36801
 966,63; 8295,036;  328,900;18904,447; 0,36769
 967,18; 8269,523;  326,566;18860,768; 0,36799
 967,74; 8211,490;  338,280;18698,416; 0,36772
 968,29; 8158,803;  312,139;18552,326; 0,36634
 968,84; 8130,156;  312,696;18491,916; 0,36651
 969,39; 8018,796;  309,376;18249,277; 0,36680
 969,94; 8002,703;  331,393;18220,383; 0,36772
 970,49; 8004,183;  334,493;18175,291; 0,36664
 971,05; 7935,400;  325,690;18011,246; 0,36625
 971,60; 7893,406;  334,683;17874,477; 0,36558
 972,15; 7825,573;  320,906;17710,006; 0,36495
 972,70; 7851,320;  361,250;17720,066; 0,36503
 973,25; 7751,920;  335,423;17528,996; 0,36517
 973,80; 7717,830;  341,199;17446,477; 0,36527
 974,35; 7648,626;  313,656;17294,844; 0,36457
 974,90; 7599,126;  325,913;17165,637; 0,36461
 975,46; 7577,753;  335,093;17083,080; 0,36406
 976,01; 7548,570;  340,206;17021,221; 0,36439
 976,56; 7489,350;  336,873;16863,770; 0,36373
 977,11; 7389,960;  319,639;16673,439; 0,36418
 977,66; 7299,776;  311,886;16437,311; 0,36317
 978,21; 7312,930;  338,949;16425,244; 0,36298
 978,76; 7250,903;  315,729;16309,356; 0,36289
 979,31; 7216,623;  341,560;16166,604; 0,36207
 979,86; 7149,400;  321,590;16027,063; 0,36177
 980,41; 7117,953;  339,889;15936,970; 0,36194
 980,96; 7016,080;  308,419;15667,900; 0,35981
 981,51; 7026,793;  354,233;15650,816; 0,36030
 982,06; 6957,187;  320,483;15544,354; 0,36057
 982,61; 6944,940;  368,573;15415,583; 0,35946
 983,16; 6852,770;  337,389;15246,920; 0,35952
 983,72; 6798,077;  340,720;15110,470; 0,35932
 984,27; 6759,283;  352,810;15016,460; 0,35962
 984,82; 6692,260;  332,116;14886,377; 0,35952
 985,37; 6630,553;  331,829;14730,396; 0,35907
 985,92; 6557,816;  323,743;14573,066; 0,35902
 986,47; 6517,233;  326,916;14444,174; 0,35804
 987,02; 6499,273;  363,246;14357,077; 0,35805
 987,57; 6392,517;  334,663;14161,747; 0,35841
 988,12; 6352,676;  326,046;14052,720; 0,35749
 988,67; 6332,023;  344,076;13970,917; 0,35712
 989,22; 6273,000;  343,116;13840,757; 0,35721
 989,76; 6231,327;  342,810;13735,253; 0,35685
 990,31; 6184,420;  357,053;13610,970; 0,35687
 990,86; 6115,876;  331,393;13473,486; 0,35640
 991,41; 6067,613;  334,376;13362,050; 0,35647
 991,96; 6023,517;  340,823;13218,177; 0,35527
 992,51; 6000,410;  365,150;13122,137; 0,35483
 993,06; 5958,703;  376,736;13025,747; 0,35527
 993,61; 5933,213;  391,900;12917,964; 0,35420
 994,16; 5837,687;  366,063;12740,100; 0,35440
 994,71; 5747,440;  336,563;12554,187; 0,35372
 995,26; 5743,963;  356,479;12483,227; 0,35236
 995,81; 5750,763;  411,453;12431,280; 0,35241
 996,36; 5629,783;  336,840;12250,800; 0,35236
 996,91; 5605,283;  383,083;12125,714; 0,35191
 997,46; 5611,750;  416,060;12074,117; 0,35098
 998,00; 5472,673;  351,789;11870,943; 0,35208
 998,55; 5449,920;  362,436;11794,634; 0,35163
 999,10; 5360,093;  335,819;11633,977; 0,35193
 999,65; 5347,493;  357,443;11553,483; 0,35096
1000,20; 5331,696;  388,166;11491,830; 0,35143
1000,75; 5335,143;  427,319;11418,377; 0,35015
1001,30; 5192,623;  354,716;11218,967; 0,35134
1001,85; 5165,470;  358,786;11119,483; 0,34999
1002,39; 5133,530;  379,113;11021,630; 0,34995
1002,94; 5040,343;  338,780;10859,420; 0,34980
1003,49; 5036,953;  365,256;10797,493; 0,34890
1004,04; 5024,276;  387,306;10738,090; 0,34874
1004,59; 4985,593;  415,506;10605,120; 0,34823
1005,14; 4882,270;  364,629;10427,347; 0,34780
1005,68; 4839,457;  355,613;10330,743; 0,34727
1006,23; 4797,563;  361,889;10233,000; 0,34741
1006,78; 4772,323;  368,796;10152,743; 0,34671
1007,33; 4708,276;  348,536;10034,720; 0,34669
1007,88; 4661,930;  358,353; 9932,217; 0,34726
1008,42; 4665,236;  383,746; 9875,250; 0,34574
1008,97; 4610,860;  363,986; 9764,117; 0,34506
1009,52; 4560,146;  357,970; 9674,340; 0,34577
1010,07; 4496,210;  335,506; 9567,073; 0,34611
1010,62; 4468,643;  347,163; 9471,924; 0,34517
1011,16; 4460,343;  363,590; 9415,930; 0,34432
1011,71; 4420,873;  352,223; 9345,510; 0,34447
1012,26; 4419,477;  389,313; 9282,820; 0,34375
1012,81; 4359,836;  366,883; 9203,290; 0,34498
1013,35; 4372,223;  382,616; 9200,693; 0,34444
1013,90; 4326,053;  364,389; 9102,137; 0,34352
1014,45; 4270,060;  335,509; 9002,356; 0,34297
1015,00; 4249,593;  350,053; 8929,097; 0,34243
1015,54; 4235,890;  358,333; 8864,333; 0,34117
1016,09; 4165,546;  333,803; 8738,930; 0,34115
1016,64; 4103,636;  330,663; 8596,644; 0,34061
1017,19; 4033,250;  317,963; 8462,384; 0,34087
1017,73; 4049,960;  383,216; 8394,490; 0,33942
1018,28; 3931,430;  347,166; 8180,037; 0,33952
1018,83; 3889,966;  358,283; 8042,693; 0,33763
1019,37; 3798,167;  333,733; 7885,047; 0,33839
1019,92; 3775,113;  361,786; 7791,400; 0,33779
1020,47; 3710,240;  352,613; 7663,210; 0,33792
1021,01; 3658,103;  340,866; 7571,914; 0,33842
1021,56; 3582,677;  316,960; 7420,100; 0,33747
1022,11; 3595,927;  344,176; 7412,487; 0,33720
1022,65; 3698,563;  492,306; 7422,330; 0,33474
1023,20; 3537,790;  376,536; 7246,720; 0,33711
1023,75; 3472,716;  358,120; 7138,394; 0,33785
1024,29; 3421,073;  340,039; 7031,867; 0,33685
1024,84; 3393,266;  354,376; 6948,097; 0,33642
1025,39; 3399,836;  389,063; 6918,900; 0,33622
1025,93; 3326,023;  346,919; 6809,707; 0,33633
1026,48; 3280,030;  338,616; 6720,283; 0,33638
1027,02; 3311,830;  394,599; 6708,773; 0,33535
1027,57; 3210,570;  345,359; 6542,934; 0,33507
1028,12; 3174,013;  333,916; 6471,030; 0,33463
1028,66; 3151,830;  348,806; 6404,217; 0,33452
1029,21; 3100,913;  333,713; 6304,967; 0,33402
1029,76; 3071,600;  339,803; 6241,130; 0,33450
1030,30; 3090,206;  380,986; 6207,597; 0,33257
1030,85; 3032,697;  370,063; 6108,160; 0,33346
1031,39; 3005,146;  370,733; 6040,474; 0,33288
1031,94; 2960,090;  343,223; 5972,513; 0,33267
1032,48; 2895,927;  324,673; 5838,660; 0,33132
1033,03; 2886,570;  329,169; 5817,297; 0,33163
1033,58; 2895,043;  368,229; 5782,210; 0,33094
1034,12; 2849,640;  360,720; 5686,133; 0,33034
1034,67; 2861,953;  399,076; 5649,287; 0,32873
1035,21; 2794,293;  365,473; 5551,737; 0,32946
1035,76; 2753,543;  344,960; 5484,537; 0,32917
1036,30; 2719,503;  348,030; 5413,547; 0,32961
1036,85; 2722,476;  380,396; 5377,013; 0,32907
1037,39; 2727,900;  416,466; 5334,184; 0,32788
1037,94; 2631,437;  349,196; 5207,890; 0,32816
1038,48; 2594,643;  338,643; 5141,737; 0,32818
1039,03; 2604,486;  373,493; 5108,557; 0,32683
1039,57; 2570,353;  366,930; 5024,490; 0,32506
1040,12; 2548,030;  364,776; 4981,644; 0,32524
1040,66; 2494,300;  348,836; 4879,820; 0,32467
1041,21; 2457,610;  352,936; 4811,423; 0,32600
1041,75; 2440,633;  351,656; 4769,130; 0,32524
1042,30; 2540,576;  459,243; 4828,610; 0,32208
1042,84; 2378,943;  342,613; 4642,390; 0,32460
1043,39; 2342,020;  344,900; 4561,894; 0,32460
1043,93; 2325,156;  343,566; 4520,994; 0,32390
1044,48; 2313,223;  362,359; 4489,937; 0,32547
1045,02; 2268,090;  343,566; 4416,013; 0,32553
1045,56; 2226,720;  331,503; 4340,793; 0,32541
1046,11; 2263,820;  386,669; 4333,570; 0,32276
1046,65; 2197,103;  347,596; 4235,907; 0,32270
1047,20; 2153,036;  330,393; 4167,097; 0,32326
1047,74; 2181,763;  381,756; 4147,160; 0,32054
1048,29; 2097,116;  322,349; 4045,970; 0,32182
1048,83; 2095,417;  347,240; 4011,200; 0,32137
1049,37; 2084,943;  351,456; 3983,350; 0,32121
1049,92; 2065,146;  356,576; 3936,160; 0,32120
1050,46; 2018,893;  342,889; 3850,480; 0,32073
1051,01; 2017,386;  352,203; 3833,090; 0,32023
1051,55; 1974,570;  341,103; 3753,723; 0,31998
1052,09; 1947,033;  343,909; 3693,370; 0,32001
1052,64; 1951,906;  354,220; 3679,400; 0,31832
1053,18; 1999,770;  423,710; 3684,783; 0,31579
1053,72; 1876,236;  334,703; 3533,437; 0,31703
1054,27; 1855,663;  335,210; 3491,753; 0,31724
1054,81; 1866,773;  364,639; 3485,010; 0,31750
1055,35; 1794,640;  327,106; 3388,440; 0,31932
1055,90; 1822,133;  366,440; 3392,307; 0,31778
1056,44; 1758,560;  329,490; 3299,423; 0,31769
1056,98; 1767,410;  355,383; 3278,530; 0,31601
1057,53; 1759,496;  362,373; 3248,990; 0,31515
1058,07; 1713,043;  345,326; 3171,057; 0,31513
1058,61; 1699,260;  351,180; 3140,150; 0,31573
1059,16; 1697,676;  368,546; 3108,967; 0,31425
1059,70; 1651,756;  347,456; 3047,287; 0,31596
1060,24; 1706,380;  412,843; 3069,753; 0,31260
1060,79; 1596,746;  341,276; 2943,720; 0,31657
1061,33; 1603,160;  362,563; 2916,407; 0,31356
1061,87; 1561,596;  337,963; 2852,107; 0,31274
1062,41; 1543,216;  340,879; 2816,517; 0,31366
1062,96; 1530,196;  341,323; 2783,697; 0,31268
1063,50; 1507,890;  341,463; 2740,027; 0,31309
1064,04; 1483,680;  337,530; 2700,487; 0,31421
1064,58; 1471,306;  343,353; 2670,340; 0,31450
1065,13; 1470,140;  356,750; 2655,497; 0,31484
1065,67; 1419,250;  322,683; 2574,650; 0,31253
1066,21; 1445,376;  364,620; 2595,043; 0,31466
1066,75; 1414,230;  353,186; 2547,043; 0,31548
1067,30; 1397,856;  347,159; 2501,800; 0,31190
1067,84; 1370,190;  342,446; 2455,923; 0,31311
1068,38; 1371,713;  350,966; 2449,183; 0,31293
1068,92; 1382,030;  372,113; 2430,747; 0,30929
1069,47; 1348,823;  356,023; 2392,167; 0,31195
1070,01; 1355,363;  377,866; 2389,163; 0,31336
1070,55; 1318,043;  348,099; 2332,950; 0,31098
1071,09; 1305,246;  353,516; 2300,533; 0,31086
1071,63; 1321,600;  383,440; 2299,667; 0,31017
1072,17; 1258,813;  334,406; 2224,487; 0,31062
1072,72; 1259,563;  349,373; 2212,077; 0,31101
1073,26; 1355,963;  436,223; 2281,950; 0,30250
1073,80; 1241,943;  353,056; 2174,157; 0,31149
1074,34; 1238,116;  359,900; 2157,660; 0,31113
1074,88; 1320,723;  436,163; 2207,467; 0,30157
1075,42; 1208,260;  355,943; 2099,837; 0,31092
1075,97; 1208,230;  363,093; 2083,614; 0,30873
1076,51; 1193,456;  359,293; 2053,867; 0,30781
1077,05; 1165,523;  344,363; 2008,640; 0,30680
1077,59; 1175,430;  366,263; 2009,293; 0,30761
1078,13; 1164,730;  361,016; 1990,213; 0,30687
1078,67; 1137,676;  352,346; 1945,463; 0,30720
1079,21; 1244,860;  459,393; 2036,727; 0,30280
1079,75; 1133,320;  365,949; 1928,377; 0,30879
1080,30; 1068,310;  321,243; 1838,057; 0,30757
1080,84; 1113,806;  372,430; 1875,903; 0,30706
1081,38; 1073,986;  337,859; 1823,847; 0,30506
1081,92; 1078,083;  356,223; 1821,410; 0,30744
1082,46; 1088,260;  373,710; 1816,893; 0,30529
1083,00; 1061,056;  352,409; 1781,943; 0,30476
1083,54; 1066,736;  370,983; 1773,647; 0,30450
1084,08; 1048,370;  363,356; 1750,513; 0,30643
1084,62; 1054,210;  376,706; 1744,307; 0,30505
1085,16; 1030,296;  365,873; 1706,487; 0,30486
1085,70; 1022,416;  363,773; 1692,007; 0,30462
1086,24;  988,106;  342,343; 1640,340; 0,30320
1086,78;  997,386;  357,363; 1641,280; 0,30234
1087,32; 1017,356;  382,909; 1653,523; 0,30162
1087,86;  978,080;  352,190; 1610,090; 0,30315
1088,40;  974,933;  362,673; 1597,190; 0,30456
1088,94;  997,890;  389,316; 1610,973; 0,30264
1089,48;  963,933;  367,039; 1570,150; 0,30441
1090,02;  941,080;  349,173; 1535,157; 0,30183
1090,56;  972,113;  386,066; 1553,667; 0,29936
1091,10;  964,123;  389,313; 1537,490; 0,30048
1091,64;  941,536;  375,203; 1510,520; 0,30204
1092,18;  943,093;  383,013; 1501,997; 0,30057
1092,72;  886,866;  336,460; 1436,147; 0,30059
1093,26;  923,813;  377,626; 1473,520; 0,30243
1093,80;  906,660;  372,243; 1436,850; 0,29931
1094,34;  884,413;  354,829; 1415,547; 0,30167
1094,88;  897,230;  377,946; 1425,693; 0,30485
1095,42;  917,340;  396,336; 1428,953; 0,29710
1095,96;  871,650;  361,909; 1375,670; 0,29859
1096,50;  865,920;  364,099; 1367,727; 0,30102
1097,04;  859,786;  363,473; 1352,963; 0,29966
1097,58;  855,620;  368,253; 1340,923; 0,30011
1098,12;  845,850;  366,406; 1321,510; 0,29931
1098,66;  862,836;  386,746; 1333,703; 0,29864
1099,20;  845,193;  376,586; 1305,960; 0,29738
1099,73;  829,093;  366,770; 1282,293; 0,29672
1100,27;  839,826;  383,053; 1289,500; 0,29764

