
Integration time [ms]: 200,000
Averaging Nr. [scans]: 300
Smoothing Nr. [pixels]: 0
Data measured with spectrometer [name]: 2112124U1
Wave   ;Sample   ;Dark     ;Reference;Absorbance
[nm]   ;[counts] ;[counts] ;[counts] ;[A.U]

 176,03;  369,636;  360,085;  361,766;-0,75443
 176,64;  386,808;  383,568;  380,058; 0,00000
 177,24;  364,887;  360,240;  358,030; 0,00000
 177,84;  382,871;  376,289;  375,041; 0,00000
 178,44;  391,919;  382,372;  384,307;-0,69323
 179,05;  400,427;  395,102;  393,245; 0,00000
 179,65;  368,623;  363,385;  360,949; 0,00000
 180,25;  369,034;  358,266;  363,503;-0,31308
 180,85;  379,466;  370,726;  368,972; 0,00000
 181,45;  376,570;  370,023;  370,344; 0,00000
 182,06;  362,755;  356,396;  354,159; 0,00000
 182,66;  420,228;  411,715;  411,613; 0,00000
 183,26;  372,014;  366,866;  366,806; 0,00000
 183,86;  402,146;  396,660;  394,765; 0,00000
 184,46;  350,718;  344,907;  345,601; 0,00000
 185,07;  374,151;  365,721;  369,104;-0,39654
 185,67;  434,227;  385,432;  484,410; 0,30716
 186,27;  437,346;  392,948;  491,702; 0,34719
 186,87;  419,318;  374,503;  470,507; 0,33086
 187,47;  435,901;  390,680;  490,031; 0,34183
 188,07;  430,103;  382,374;  482,569; 0,32206
 188,68;  417,664;  364,576;  475,468; 0,31991
 189,28;  406,215;  359,107;  458,738; 0,32530
 189,88;  406,699;  374,931;  462,542; 0,44057
 190,48;  399,919;  377,407;  457,720; 0,55238
 191,08;  442,911;  408,082;  501,853; 0,43013
 191,68;  411,747;  366,924;  470,092; 0,36204
 192,29;  480,289;  421,445;  535,607; 0,28782
 192,89;  443,243;  388,983;  500,960; 0,31465
 193,49;  458,323;  400,717;  518,844; 0,31188
 194,09;  436,214;  379,127;  498,981; 0,32212
 194,69;  472,819;  418,284;  540,034; 0,34879
 195,29;  404,251;  354,652;  472,590; 0,37618
 195,90;  429,918;  373,513;  499,556; 0,34920
 196,50;  445,933;  388,568;  516,374; 0,34790
 197,10;  459,358;  404,543;  533,403; 0,37122
 197,70;  427,143;  372,677;  503,428; 0,38032
 198,30;  428,204;  377,380;  509,028; 0,41334
 198,90;  450,405;  393,536;  531,489; 0,38485
 199,50;  438,254;  384,133;  531,112; 0,43389
 200,11;  449,595;  391,639;  552,233; 0,44263
 200,71;  471,304;  409,695;  591,699; 0,47044
 201,31;  473,660;  406,580;  620,877; 0,50443
 201,91;  456,014;  384,883;  644,043; 0,56151
 202,51;  461,802;  384,918;  699,059; 0,61129
 203,11;  492,510;  404,412;  782,940; 0,63313
 203,71;  455,330;  359,274;  812,596; 0,67388
 204,31;  471,046;  370,261;  896,564; 0,71784
 204,91;  505,952;  388,517;  994,399; 0,71259
 205,52;  479,467;  360,153; 1028,559; 0,74835
 206,12;  510,318;  380,197; 1120,244; 0,75491
 206,72;  516,981;  382,223; 1194,932; 0,78038
 207,32;  511,754;  367,923; 1244,209; 0,78479
 207,92;  546,360;  391,240; 1337,763; 0,78546
 208,52;  564,514;  397,423; 1429,559; 0,79078
 209,12;  547,774;  377,125; 1505,057; 0,82018
 209,72;  575,048;  387,141; 1638,489; 0,82343
 210,32;  567,130;  364,232; 1737,570; 0,83050
 210,92;  596,015;  375,875; 1893,642; 0,83850
 211,53;  603,657;  373,543; 2040,929; 0,86009
 212,13;  611,367;  356,459; 2185,346; 0,85580
 212,73;  657,828;  390,919; 2373,938; 0,87096
 213,33;  627,691;  340,581; 2452,200; 0,86657
 213,93;  660,099;  365,789; 2589,309; 0,87824
 214,53;  779,738;  463,088; 2774,877; 0,86337
 215,13;  683,960;  374,299; 2706,247; 0,87683
 215,73;  645,833;  352,064; 2586,147; 0,88109
 216,33;  599,438;  330,625; 2324,925; 0,87034
 216,93;  578,323;  353,156; 1976,703; 0,85796
 217,53;  567,839;  372,175; 1751,992; 0,84831
 218,13;  594,093;  378,767; 2006,463; 0,87848
 218,73;  657,900;  351,796; 2816,591; 0,90591
 219,33;  772,104;  351,077; 3875,882; 0,92283
 219,93;  906,982;  385,258; 4878,317; 0,93510
 220,53;  983,875;  372,999; 5634,988; 0,93520
 221,14; 1033,212;  364,044; 6196,632; 0,94033
 221,74; 1082,911;  361,626; 6684,458; 0,94280
 222,34; 1100,167;  343,687; 7080,172; 0,94964
 222,94; 1153,306;  349,855; 7501,498; 0,94945
 223,54; 1166,540;  328,743; 7905,167; 0,95633
 224,14; 1319,823;  431,994; 8480,714; 0,95740
 224,74; 1290,838;  360,118; 8926,688; 0,96399
 225,34; 1330,146;  357,229; 9339,535; 0,96531
 225,94; 1348,626;  338,030; 9767,511; 0,96991
 226,54; 1400,148;  350,738;10257,946; 0,97501
 227,14; 1461,020;  365,936;10757,968; 0,97725
 227,74; 1480,940;  350,104;11086,055; 0,97744
 228,34; 1515,594;  351,450;11592,785; 0,98481
 228,94; 1521,521;  325,353;11914,619; 0,98626
 229,54; 1600,813;  360,508;12403,170; 0,98719
 230,14; 1626,259;  346,823;12903,004; 0,99184
 230,74; 1666,978;  344,565;13441,471; 0,99580
 231,34; 1732,357;  356,340;14021,042; 0,99698
 231,94; 1782,624;  352,503;14666,870; 1,00040
 232,54; 1800,545;  334,666;15158,793; 1,00487
 233,14; 1882,885;  373,015;15710,777; 1,00682
 233,74; 1869,784;  332,580;16139,117; 1,01211
 234,34; 1899,540;  328,087;16457,922; 1,01133
 234,94; 1936,308;  350,162;16796,764; 1,01573
 235,54; 1907,185;  323,556;16830,246; 1,01801
 236,14; 1943,915;  360,183;16906,576; 1,01902
 236,74; 1906,019;  345,190;16768,246; 1,02210
 237,34; 1895,054;  356,368;16610,350; 1,02381
 237,94; 1835,676;  324,546;16318,009; 1,02464
 238,54; 1804,160;  321,561;16034,139; 1,02522
 239,14; 1778,214;  335,450;15675,290; 1,02663
 239,74; 1700,504;  303,739;15249,012; 1,02938
 240,34; 1675,788;  323,579;14915,701; 1,03307
 240,93; 1765,430;  436,979;14666,622; 1,02985
 241,53; 1650,880;  362,617;14235,317; 1,03216
 242,13; 1665,553;  406,027;13863,337; 1,02875
 242,73; 1534,399;  330,655;13429,511; 1,03670
 243,33; 1500,959;  332,617;13016,658; 1,03569
 243,93; 1522,767;  389,052;12693,787; 1,03557
 244,53; 1431,527;  338,653;12294,700; 1,03902
 245,13; 1414,850;  365,120;11965,734; 1,04340
 245,73; 1401,308;  369,150;11664,556; 1,03916
 246,33; 1353,625;  352,846;11441,659; 1,04455
 246,93; 1322,041;  336,518;11258,408; 1,04463
 247,53; 1324,953;  337,779;11272,542; 1,04442
 248,13; 1300,059;  326,586;11280,047; 1,05123
 248,73; 1336,078;  341,941;11505,646; 1,05036
 249,33; 1367,897;  347,648;11886,436; 1,05345
 249,93; 1409,821;  355,854;12402,773; 1,05805
 250,52; 1410,111;  320,376;12917,021; 1,06293
 251,12; 1506,316;  354,657;13668,991; 1,06300
 251,72; 1538,258;  332,946;14442,048; 1,06840
 252,32; 1589,056;  323,142;15252,449; 1,07164
 252,92; 1662,831;  319,625;16257,335; 1,07428
 253,52; 1765,971;  344,931;17276,217; 1,07608
 254,12; 1839,360;  346,708;18245,842; 1,07887
 254,72; 1906,400;  341,595;19301,486; 1,08338
 255,32; 2005,697;  353,358;20452,605; 1,08508
 255,92; 2056,062;  336,540;21473,709; 1,08964
 256,52; 2128,544;  341,163;22372,912; 1,09083
 257,11; 2181,899;  332,922;23223,660; 1,09273
 257,71; 2279,793;  363,648;24227,588; 1,09531
 258,31; 2334,574;  379,392;24809,926; 1,09675
 258,91; 2330,247;  337,271;25322,371; 1,09818
 259,51; 2466,311;  416,632;26053,363; 1,09718
 260,11; 2360,410;  315,246;26167,789; 1,10178
 260,71; 2437,367;  368,256;26618,178; 1,10334
 261,31; 2388,111;  328,066;26545,822; 1,10472
 261,90; 2405,367;  328,584;26815,539; 1,10564
 262,50; 2440,009;  355,006;27070,449; 1,10766
 263,10; 2432,029;  344,284;27264,180; 1,11040
 263,70; 2433,453;  328,851;27603,250; 1,11259
 264,30; 2458,962;  343,649;27807,199; 1,11338
 264,90; 2453,651;  329,243;28012,723; 1,11498
 265,50; 2469,324;  344,093;28062,455; 1,11536
 266,09; 2484,715;  362,293;28060,172; 1,11561
 266,69; 2397,690;  320,229;27609,492; 1,11846
 267,29; 2407,238;  348,330;27436,844; 1,11915
 267,89; 2350,925;  327,077;27069,955; 1,12103
 268,49; 2331,630;  332,949;26784,717; 1,12171
 269,09; 2316,071;  349,774;26583,254; 1,12521
 269,68; 2301,263;  350,298;26420,529; 1,12590
 270,28; 2256,186;  330,266;26128,607; 1,12695
 270,88; 2272,460;  344,483;26201,021; 1,12747
 271,48; 2243,328;  336,837;26052,754; 1,12997
 272,08; 2230,804;  324,767;26156,395; 1,13202
 272,68; 2271,227;  347,896;26542,258; 1,13415
 273,27; 2298,146;  337,847;27155,920; 1,13611
 273,87; 2348,221;  352,211;27713,570; 1,13698
 274,47; 2419,854;  368,810;28546,043; 1,13792
 275,07; 2427,002;  324,017;29346,957; 1,13991
 275,67; 2480,665;  342,096;30026,178; 1,14240
 276,26; 2534,782;  354,399;30667,236; 1,14309
 276,86; 2558,729;  335,265;31333,146; 1,14430
 277,46; 2593,972;  338,462;31950,135; 1,14660
 278,06; 2601,123;  320,875;32421,756; 1,14853
 278,66; 2664,480;  346,072;33043,078; 1,14932
 279,25; 2652,205;  319,012;33308,609; 1,15043
 279,85; 2713,672;  358,168;33672,867; 1,15055
 280,45; 2726,295;  348,762;34131,902; 1,15257
 281,05; 2717,814;  335,839;34245,816; 1,15339
 281,65; 2761,110;  375,927;34542,508; 1,15608
 282,24; 2772,506;  380,260;34644,141; 1,15603
 282,84; 2718,351;  328,879;34561,949; 1,15614
 283,44; 2733,998;  343,119;34750,844; 1,15810
 284,04; 2729,587;  340,057;34782,652; 1,15878
 284,63; 2721,272;  363,828;34727,520; 1,16366
 285,23; 2718,660;  328,020;34873,770; 1,15988
 285,83; 2719,763;  343,171;34850,891; 1,16196
 286,43; 2714,888;  343,839;34739,059; 1,16156
 287,02; 2746,973;  401,625;34383,414; 1,16104
 287,62; 2624,066;  329,739;33740,402; 1,16323
 288,22; 2599,723;  351,950;33117,680; 1,16367
 288,82; 2538,900;  346,985;32371,410; 1,16466
 289,41; 2492,849;  341,009;31804,914; 1,16500
 290,01; 2500,346;  364,071;31650,410; 1,16570
 290,61; 2527,001;  377,785;32036,463; 1,16821
 291,21; 2503,344;  332,162;32409,295; 1,16950
 291,80; 2538,235;  332,678;32792,180; 1,16782
 292,40; 2554,181;  345,497;32995,141; 1,16974
 293,00; 2570,764;  357,397;32992,750; 1,16863
 293,60; 2531,866;  335,086;32815,305; 1,16983
 294,19; 2519,547;  325,297;32738,178; 1,16943
 294,79; 2509,739;  331,451;32544,539; 1,16992
 295,39; 2524,713;  368,093;32224,730; 1,16943
 295,98; 2455,368;  327,771;31756,078; 1,16943
 296,58; 2404,925;  332,681;31028,328; 1,17064
 297,18; 2333,011;  315,494;30103,504; 1,16922
 297,77; 2320,503;  355,326;29573,545; 1,17225
 298,37; 2326,612;  345,247;29785,182; 1,17197
 298,97; 2391,155;  347,663;30829,982; 1,17368
 299,57; 2440,143;  317,408;31970,611; 1,17352
 300,16; 2510,118;  338,623;32820,301; 1,17488
 300,76; 2596,256;  358,279;33690,355; 1,17301
 301,36; 2630,782;  361,151;34230,387; 1,17385
 301,95; 2623,231;  316,304;34798,539; 1,17456
 302,55; 2685,037;  355,675;35232,215; 1,17530
 303,15; 2679,229;  325,198;35579,992; 1,17541
 303,74; 2728,597;  343,892;35958,609; 1,17419
 304,34; 2747,438;  342,763;36314,242; 1,17490
 304,94; 2757,745;  332,414;36606,313; 1,17482
 305,53; 2802,809;  362,732;36751,719; 1,17357
 306,13; 2781,732;  326,919;37116,277; 1,17570
 306,73; 2855,948;  367,097;37418,402; 1,17280
 307,32; 2840,909;  350,834;37456,480; 1,17323
 307,92; 2805,871;  337,315;37351,227; 1,17592
 308,52; 2826,892;  348,734;37361,039; 1,17422
 309,11; 2799,896;  342,473;37038,258; 1,17414
 309,71; 2831,119;  380,133;36921,305; 1,17344
 310,31; 2739,700;  293,010;36688,867; 1,17247
 310,90; 2751,457;  326,332;36533,406; 1,17406
 311,50; 2769,644;  335,359;36653,270; 1,17375
 312,10; 2778,281;  346,057;36714,820; 1,17473
 312,69; 2757,603;  318,119;36715,879; 1,17378
 313,29; 2785,444;  348,324;36717,684; 1,17386
 313,88; 2734,577;  312,732;36372,906; 1,17288
 314,48; 2749,450;  350,385;36023,531; 1,17230
 315,08; 2646,526;  297,472;35179,883; 1,17171
 315,67; 2664,157;  338,998;34849,176; 1,17149
 316,27; 2575,910;  303,228;34085,301; 1,17215
 316,87; 2573,024;  350,102;33402,055; 1,17227
 317,46; 2475,188;  297,755;32568,320; 1,17086
 318,06; 2478,030;  337,915;32186,400; 1,17265
 318,65; 2454,888;  323,899;31861,992; 1,17025
 319,25; 2446,337;  336,088;31660,230; 1,17155
 319,85; 2411,642;  321,136;31307,520; 1,17092
 320,44; 2413,214;  347,466;30953,359; 1,17073
 321,04; 2378,932;  326,130;30715,531; 1,17038
 321,63; 2379,659;  331,955;30592,676; 1,16961
 322,23; 2340,443;  292,786;30467,719; 1,16839
 322,83; 2374,742;  327,474;30515,471; 1,16866
 323,42; 2356,340;  332,559;30154,465; 1,16837
 324,02; 2316,581;  310,722;29795,477; 1,16730
 324,61; 2313,742;  314,178;29573,896; 1,16533
 325,21; 2326,157;  349,034;29261,375; 1,16505
 325,80; 2292,573;  329,734;29058,357; 1,16543
 326,40; 2421,404;  463,153;28794,930; 1,16041
 327,00; 2233,484;  315,383;28220,221; 1,16281
 327,59; 2220,575;  317,191;27992,975; 1,16257
 328,19; 2223,122;  341,769;27739,691; 1,16325
 328,78; 2192,644;  329,765;27395,291; 1,16223
 329,38; 2179,456;  331,314;27147,514; 1,16166
 329,97; 2163,336;  324,245;26933,363; 1,16043
 330,57; 2152,498;  329,113;26638,295; 1,15923
 331,16; 2120,675;  320,243;26262,889; 1,15864
 331,76; 2113,288;  321,632;25970,570; 1,15581
 332,36; 2113,870;  341,464;25631,371; 1,15438
 332,95; 2082,616;  325,077;25301,270; 1,15262
 333,55; 2101,695;  355,424;25195,656; 1,15304
 334,14; 2080,900;  314,962;25133,727; 1,14780
 334,74; 2107,553;  323,212;25246,543; 1,14513
 335,33; 2121,315;  310,558;25461,807; 1,14270
 335,93; 2159,912;  321,198;25871,047; 1,14287
 336,52; 2169,889;  311,280;26125,580; 1,14267
 337,12; 2245,703;  358,353;26425,563; 1,14024
 337,71; 2250,097;  331,151;26636,682; 1,13698
 338,31; 2300,087;  349,798;26886,191; 1,13374
 338,90; 2313,814;  359,218;27016,051; 1,13475
 339,50; 2326,743;  332,774;27194,943; 1,12942
 340,09; 2326,252;  330,714;27193,990; 1,12910
 340,69; 2331,100;  314,062;27191,070; 1,12467
 341,28; 2352,641;  334,554;27114,424; 1,12287
 341,88; 2326,523;  327,602;26736,094; 1,12095
 342,47; 2345,694;  337,203;26654,141; 1,11737
 343,07; 2375,107;  329,782;27111,371; 1,11707
 343,66; 2402,172;  319,164;27382,406; 1,11369
 344,26; 2471,700;  315,472;28215,020; 1,11190
 344,85; 2531,829;  321,748;28705,811; 1,10867
 345,45; 2593,481;  319,328;29186,760; 1,10359
 346,04; 2681,568;  363,798;29553,707; 1,10016
 346,64; 2669,390;  329,933;29681,266; 1,09851
 347,23; 2687,189;  312,849;29850,771; 1,09484
 347,83; 2761,546;  340,044;30171,982; 1,09060
 348,42; 2847,856;  379,754;30248,139; 1,08285
 349,01; 2798,551;  331,950;30043,031; 1,08082
 349,61; 2768,935;  289,497;29912,385; 1,07727
 350,20; 2853,679;  338,670;30007,291; 1,07176
 350,80; 2852,436;  315,180;30000,828; 1,06818
 351,39; 2873,629;  323,399;29855,340; 1,06371
 351,99; 2860,092;  307,432;29664,795; 1,06072
 352,58; 2899,614;  322,275;29502,271; 1,05391
 353,18; 2910,651;  350,621;29067,752; 1,04990
 353,77; 2869,619;  319,401;28610,082; 1,04507
 354,36; 2926,176;  363,933;28394,861; 1,03902
 354,96; 2876,712;  323,516;28010,125; 1,03519
 355,55; 2887,369;  312,437;27860,438; 1,02932
 356,15; 2917,799;  330,544;27708,092; 1,02456
 356,74; 2932,084;  314,084;27694,348; 1,01947
 357,34; 2972,486;  325,215;27665,398; 1,01400
 357,93; 3031,649;  330,943;27768,234; 1,00686
 358,52; 3042,698;  313,833;27667,830; 1,00104
 359,12; 3079,812;  329,189;27592,291; 0,99614
 359,71; 3092,330;  324,720;27354,119; 0,98973
 360,31; 3107,128;  319,603;27162,744; 0,98361
 360,90; 3092,165;  308,969;26681,320; 0,97661
 361,49; 3128,721;  327,363;26486,975; 0,97026
 362,09; 3131,819;  334,750;26122,840; 0,96472
 362,68; 3124,517;  327,317;25547,441; 0,95502
 363,28; 3055,006;  314,169;24740,945; 0,94998
 363,87; 2988,457;  303,751;23894,488; 0,94384
 364,46; 2987,918;  325,776;23378,375; 0,93749
 365,06; 3007,993;  347,966;23117,025; 0,93246
 365,65; 3022,807;  331,132;23129,883; 0,92789
 366,24; 3087,262;  317,893;23358,945; 0,92012
 366,84; 3151,247;  351,946;23333,225; 0,91432
 367,43; 3094,879;  306,425;22885,377; 0,90834
 368,03; 3122,841;  318,536;22545,277; 0,89905
 368,62; 3072,943;  305,168;21980,707; 0,89384
 369,21; 3090,607;  326,363;21691,662; 0,88813
 369,81; 3066,893;  320,450;21166,752; 0,88026
 370,40; 3036,532;  333,881;20593,443; 0,87484
 370,99; 3005,331;  303,137;20252,689; 0,86822
 371,59; 3046,728;  352,136;19950,072; 0,86172
 372,18; 2979,479;  288,455;19588,654; 0,85564
 372,77; 3008,275;  324,144;19257,648; 0,84843
 373,37; 2982,692;  311,511;18901,502; 0,84258
 373,96; 3019,150;  338,941;18713,932; 0,83606
 374,55; 2999,629;  304,986;18537,557; 0,83035
 375,15; 3080,002;  333,459;18660,934; 0,82432
 375,74; 3095,069;  303,049;18655,016; 0,81776
 376,33; 3134,707;  302,584;18703,863; 0,81274
 376,93; 3231,809;  329,167;18992,068; 0,80819
 377,52; 3348,899;  320,726;19512,434; 0,80193
 378,11; 3412,427;  293,780;19794,580; 0,79609
 378,71; 3571,387;  313,230;20435,998; 0,79072
 379,30; 3707,650;  313,851;20944,291; 0,78382
 379,89; 3739,253;  317,272;20801,727; 0,77715
 380,49; 3784,151;  345,041;20700,744; 0,77224
 381,08; 3801,199;  310,804;20625,727; 0,76494
 381,67; 3855,406;  345,783;20551,613; 0,76022
 382,26; 3918,582;  319,894;20787,807; 0,75493
 382,86; 4010,364;  312,601;20923,523; 0,74616
 383,45; 3988,786;  307,675;20545,236; 0,74018
 384,04; 4083,899;  406,782;20370,605; 0,73474
 384,64; 4031,046;  328,606;20173,217; 0,72915
 385,23; 4042,373;  316,863;20077,385; 0,72461
 385,82; 4152,843;  328,841;20318,053; 0,71828
 386,41; 4324,733;  326,346;20979,469; 0,71310
 387,01; 4602,869;  356,374;22083,871; 0,70898
 387,60; 4792,657;  334,946;22828,563; 0,70295
 388,19; 5026,841;  355,375;23536,895; 0,69569
 388,78; 5115,449;  339,551;23658,555; 0,68865
 389,38; 5033,389;  322,049;23018,770; 0,68282
 389,97; 5058,361;  305,389;22962,205; 0,67823
 390,56; 5242,084;  336,349;23379,697; 0,67184
 391,15; 5359,889;  305,641;23809,744; 0,66749
 391,75; 5603,567;  339,052;24484,654; 0,66148
 392,34; 5932,200;  332,839;25726,035; 0,65658
 392,93; 6179,037;  355,482;26294,539; 0,64877
 393,52; 6063,163;  309,316;25522,092; 0,64166
 394,12; 5903,807;  334,016;24551,967; 0,63830
 394,71; 5922,752;  288,556;24456,102; 0,63240
 395,30; 5964,253;  289,076;24281,830; 0,62610
 395,89; 6077,697;  349,207;24286,957; 0,62104
 396,49; 6218,515;  332,882;24648,262; 0,61609
 397,08; 6415,187;  317,254;25247,852; 0,61155
 397,67; 6805,030;  335,400;26447,506; 0,60596
 398,26; 7198,175;  335,033;27655,400; 0,59996
 398,85; 7255,524;  318,964;27441,340; 0,59218
 399,45; 7027,623;  314,448;26241,176; 0,58682
 400,04; 6970,479;  358,283;25589,816; 0,58160
 400,63; 6898,800;  307,540;25218,330; 0,57742
 401,22; 7019,036;  320,670;25276,740; 0,57121
 401,81; 6925,346;  309,772;24606,875; 0,56499
 402,41; 7028,450;  417,593;24442,350; 0,56040
 403,00; 6980,709;  318,910;24249,396; 0,55536
 403,59; 7082,737;  350,205;24188,498; 0,54910
 404,18; 7083,242;  314,737;24004,834; 0,54407
 404,77; 7190,729;  320,921;24121,902; 0,53965
 405,36; 7270,745;  300,147;24137,236; 0,53398
 405,96; 7124,978;  310,058;23220,281; 0,52657
 406,55; 6830,655;  302,865;22050,420; 0,52264
 407,14; 6785,289;  308,178;21666,172; 0,51818
 407,73; 6891,766;  340,507;21753,471; 0,51435
 408,32; 7131,754;  310,319;22386,865; 0,51006
 408,91; 7332,075;  326,255;22630,313; 0,50292
 409,51; 7297,255;  328,485;22229,078; 0,49730
 410,10; 7152,430;  282,990;21608,207; 0,49197
 410,69; 6979,491;  303,361;20784,264; 0,48682
 411,28; 6875,833;  307,734;20263,029; 0,48262
 411,87; 6847,250;  321,629;19937,164; 0,47798
 412,46; 6907,471;  314,398;19937,150; 0,47367
 413,05; 6922,466;  342,649;19703,902; 0,46872
 413,64; 6773,147;  295,160;19076,104; 0,46228
 414,24; 6561,625;  307,466;18259,146; 0,45794
 414,83; 6524,611;  343,144;17909,514; 0,45359
 415,42; 6480,291;  333,481;17641,084; 0,44959
 416,01; 6607,376;  314,763;17855,305; 0,44521
 416,60; 6747,576;  356,694;17976,219; 0,44043
 417,19; 6785,788;  314,747;17938,844; 0,43513
 417,78; 6904,406;  357,811;18033,521; 0,43136
 418,37; 6978,952;  329,286;18057,180; 0,42586
 418,96; 7134,873;  332,481;18329,111; 0,42253
 419,56; 7282,633;  331,036;18497,662; 0,41719
 420,15; 7438,322;  310,794;18813,955; 0,41431
 420,74; 7791,682;  320,123;19542,234; 0,41039
 421,33; 8261,232;  306,377;20561,982; 0,40591
 421,92; 8454,523;  340,829;20671,750; 0,39894
 422,51; 8043,708;  316,919;19414,900; 0,39299
 423,10; 7761,112;  330,832;18588,023; 0,39043
 423,69; 7515,879;  325,424;17824,646; 0,38626
 424,28; 7340,369;  309,095;17336,279; 0,38411
 424,87; 7399,806;  326,887;17276,467; 0,37956
 425,46; 7299,089;  351,671;16758,803; 0,37321
 426,05; 7030,736;  316,481;16081,728; 0,37070
 426,64; 6998,219;  305,841;15978,011; 0,36955
 427,24; 7457,672;  344,035;16804,531; 0,36435
 427,83; 7441,183;  274,800;16670,225; 0,35942
 428,42; 7520,762;  342,896;16661,053; 0,35668
 429,01; 7828,324;  285,055;17347,168; 0,35447
 429,60; 8697,965;  339,989;19104,686; 0,35124
 430,19; 9073,382;  332,868;19634,428; 0,34406
 430,78; 8697,409;  342,418;18565,756; 0,33868
 431,37; 8028,926;  372,486;16839,295; 0,33258
 431,96; 7414,003;  339,941;15553,188; 0,33255
 432,55; 7245,572;  321,509;15163,475; 0,33113
 433,14; 7622,408;  309,542;16044,614; 0,33278
 433,73; 8520,065;  343,113;17603,203; 0,32445
 434,32; 8114,915;  347,339;16363,508; 0,31427
 434,91; 7584,378;  291,776;15422,009; 0,31696
 435,50; 7717,674;  347,692;15482,210; 0,31250
 436,09; 7814,607;  332,149;15637,316; 0,31079
 436,68; 7932,548;  334,301;15719,837; 0,30640
 437,27; 7664,037;  327,328;15035,827; 0,30207
 437,86; 7686,315;  315,031;15078,494; 0,30165
 438,45; 7961,597;  331,853;15473,938; 0,29768
 439,04; 7974,888;  325,057;15358,031; 0,29339
 439,63; 7886,268;  318,390;15078,922; 0,29013
 440,22; 7945,221;  348,409;15141,058; 0,28941
 440,81; 8724,454;  337,444;16730,488; 0,29105
 441,40; 9739,100;  339,683;18374,789; 0,28302
 441,99; 9456,163;  321,980;17582,588; 0,27639
 442,58; 9214,347;  323,034;17141,949; 0,27683
 443,17; 9531,970;  311,104;17734,111; 0,27635
 443,76; 9749,244;  331,320;17910,510; 0,27104
 444,35; 9549,731;  328,073;17435,666; 0,26838
 444,94; 9592,242;  355,709;17382,781; 0,26563
 445,53; 9397,801;  329,913;16956,162; 0,26329
 446,12; 9519,174;  336,521;17131,809; 0,26222
 446,71; 9651,362;  352,864;17180,354; 0,25761
 447,29; 9361,021;  343,182;16581,564; 0,25544
 447,88; 9183,047;  332,495;16187,663; 0,25320
 448,47; 9263,534;  338,368;16266,140; 0,25154
 449,06; 9470,126;  314,734;16558,213; 0,24900
 449,65; 9635,550;  334,777;16710,730; 0,24569
 450,24; 9659,033;  342,382;16661,139; 0,24343
 450,83; 9495,876;  338,601;16286,759; 0,24094
 451,42; 9535,664;  328,151;16318,315; 0,23971
 452,01; 9657,953;  326,842;16439,650; 0,23724
 452,60; 9564,965;  346,208;16128,940; 0,23351
 453,19; 9262,898;  332,449;15558,139; 0,23170
 453,78; 9135,051;  310,454;15284,736; 0,22965
 454,37; 9252,261;  360,490;15422,726; 0,22890
 454,95; 9634,233;  348,093;16048,419; 0,22807
 455,54; 9799,004;  318,593;16136,688; 0,22233
 456,13; 9456,473;  346,680;15487,373; 0,22064
 456,72; 9515,165;  332,567;15641,142; 0,22197
 457,31;10026,149;  345,328;16400,982; 0,21972
 457,90;10382,021;  349,150;16855,381; 0,21622
 458,49;10545,029;  336,551;17033,602; 0,21368
 459,08;10577,474;  328,696;17043,375; 0,21243
 459,67;10773,247;  364,575;17237,633; 0,20980
 460,25;10564,379;  348,060;16781,980; 0,20645
 460,84;10610,541;  341,515;16861,957; 0,20649
 461,43;10215,069;  328,759;16023,012; 0,20071
 462,02; 9433,188;  318,689;14794,191; 0,20090
 462,61; 9375,893;  308,528;14785,124; 0,20319
 463,20;10047,549;  345,430;15756,023; 0,20095
 463,79;10590,031;  323,114;16559,641; 0,19905
 464,37;10909,392;  351,902;17023,367; 0,19841
 464,96;11374,619;  327,519;17646,559; 0,19528
 465,55;11777,922;  309,586;18158,438; 0,19211
 466,14;11193,280;  330,745;17039,525; 0,18701
 466,73; 9909,187;  325,655;15032,316; 0,18599
 467,32; 9538,437;  337,854;14508,477; 0,18757
 467,90; 9516,250;  323,250;14414,938; 0,18551
 468,49; 9256,447;  321,325;13916,073; 0,18227
 469,08; 8757,469;  321,166;13136,986; 0,18159
 469,67; 8472,260;  328,626;12695,922; 0,18146
 470,26; 8388,931;  313,395;12559,830; 0,18084
 470,85; 8353,448;  299,552;12480,969; 0,17969
 471,43; 8448,867;  321,005;12602,268; 0,17927
 472,02; 8662,243;  316,632;12906,532; 0,17856
 472,61; 9043,025;  301,118;13437,555; 0,17687
 473,20; 9503,737;  358,280;14023,160; 0,17440
 473,79; 9432,697;  346,202;13830,846; 0,17144
 474,37; 9370,434;  338,464;13780,721; 0,17269
 474,96; 9922,912;  330,287;14583,107; 0,17196
 475,55; 9920,381;  314,761;14403,431; 0,16634
 476,14; 9426,508;  311,537;13683,688; 0,16645
 476,72; 9204,496;  331,043;13303,588; 0,16493
 477,31; 8948,288;  316,057;12985,107; 0,16662
 477,90; 9485,555;  318,904;13738,083; 0,16552
 478,49; 9443,062;  318,129;13549,364; 0,16137
 479,08; 9219,795;  332,413;13243,997; 0,16221
 479,66; 9633,841;  310,728;13875,031; 0,16284
 480,25; 9950,962;  311,043;14219,396; 0,15920
 480,84; 9653,668;  308,632;13730,607; 0,15724
 481,43; 9930,220;  347,375;14142,333; 0,15823
 482,01; 9880,239;  292,309;13942,782; 0,15342
 482,60; 9290,598;  346,524;13098,231; 0,15403
 483,19; 9223,863;  310,527;13048,366; 0,15506
 483,78; 9658,184;  322,650;13672,611; 0,15534
 484,36;10470,593;  311,520;14891,580; 0,15691
 484,95;12455,642;  344,823;18579,404; 0,17772
 485,54;27930,105;  328,117;40502,590; 0,16301
 486,12;30223,891;  323,706;40410,520; 0,12733
 486,71;14346,159;  310,591;18751,363; 0,11855
 487,30;10781,830;  335,957;14819,509; 0,14193
 487,89; 9163,926;  325,748;12514,656; 0,13960
 488,47; 8401,847;  295,591;11603,951; 0,14458
 489,06; 8403,728;  316,463;11575,978; 0,14372
 489,65; 8233,627;  355,341;11266,909; 0,14146
 490,23; 7996,308;  361,139;10942,286; 0,14171
 490,82; 7981,706;  303,619;10937,221; 0,14143
 491,41; 7962,755;  326,297;10870,940; 0,14014
 492,00; 7799,115;  345,532;10651,551; 0,14073
 492,58; 7814,779;  324,445;10621,289; 0,13820
 493,17; 7870,500;  333,966;10700,254; 0,13845
 493,76; 7916,945;  398,260;10736,825; 0,13832
 494,34; 7877,286;  350,544;10645,819; 0,13603
 494,93; 7568,291;  343,493;10161,253; 0,13319
 495,52; 7467,080;  328,559;10177,805; 0,13979
 496,10; 8391,068;  317,407;11400,070; 0,13757
 496,69; 8249,685;  352,159;10928,375; 0,12684
 497,28; 7183,159;  393,059; 9517,639; 0,12834
 497,86; 6939,122;  324,829; 9317,378; 0,13340
 498,45; 7214,894;  312,333; 9695,438; 0,13334
 499,04; 7560,670;  350,916;10122,075; 0,13203
 499,62; 7698,871;  376,735;10220,077; 0,12850
 500,21; 7282,936;  346,371; 9636,579; 0,12688
 500,80; 7233,847;  318,063; 9697,120; 0,13232
 501,38; 7609,330;  328,892;10114,727; 0,12844
 501,97; 7599,576;  333,129;10052,751; 0,12633
 502,55; 7522,332;  323,333; 9987,355; 0,12789
 503,14; 7524,782;  322,978; 9953,820; 0,12622
 503,73; 7293,766;  313,898; 9580,801; 0,12309
 504,31; 6921,288;  311,573; 9120,442; 0,12474
 504,90; 7036,446;  349,119; 9251,674; 0,12426
 505,49; 6983,047;  320,179; 9180,311; 0,12378
 506,07; 7166,078;  335,290; 9422,761; 0,12397
 506,66; 7005,451;  302,735; 9120,313; 0,11910
 507,24; 6508,245;  313,190; 8517,741; 0,12201
 507,83; 6684,464;  303,041; 8787,331; 0,12370
 508,42; 6744,120;  289,609; 8758,297; 0,11795
 509,00; 6476,361;  338,337; 8399,396; 0,11836
 509,59; 6358,626;  336,317; 8273,204; 0,11989
 510,17; 6418,376;  327,608; 8317,195; 0,11785
 510,76; 6308,453;  344,803; 8158,958; 0,11737
 511,34; 6167,880;  312,100; 7965,839; 0,11629
 511,93; 5920,765;  325,068; 7615,515; 0,11490
 512,52; 5822,327;  324,009; 7525,500; 0,11719
 513,10; 5848,731;  316,527; 7511,817; 0,11415
 513,69; 5740,559;  334,197; 7359,125; 0,11374
 514,27; 5606,630;  319,883; 7190,599; 0,11381
 514,86; 5368,224;  350,522; 6843,645; 0,11195
 515,44; 5289,264;  304,801; 6795,849; 0,11470
 516,03; 5490,464;  331,216; 7055,729; 0,11507
 516,61; 5535,716;  351,743; 7047,037; 0,11111
 517,20; 5305,534;  305,505; 6757,669; 0,11073
 517,79; 5142,628;  351,295; 6549,768; 0,11183
 518,37; 5217,518;  328,449; 6661,492; 0,11239
 518,96; 5568,279;  437,029; 7058,706; 0,11074
 519,54; 5333,879;  296,059; 6743,821; 0,10717
 520,13; 5016,012;  345,298; 6327,904; 0,10751
 520,71; 4996,365;  307,564; 6347,159; 0,10995
 521,30; 5191,736;  323,702; 6553,108; 0,10709
 521,88; 5060,074;  313,611; 6381,205; 0,10665
 522,47; 5203,474;  339,170; 6578,267; 0,10810
 523,05; 5323,864;  331,082; 6718,754; 0,10700
 523,64; 5541,025;  332,276; 7008,169; 0,10778
 524,22; 5648,344;  328,083; 7126,842; 0,10650
 524,81; 5636,957;  324,383; 7085,186; 0,10469
 525,39; 5748,353;  333,523; 7270,596; 0,10759
 525,98; 5963,179;  319,088; 7529,497; 0,10637
 526,56; 6199,799;  331,801; 7810,998; 0,10536
 527,15; 6386,974;  326,330; 8029,121; 0,10413
 527,73; 6483,142;  358,773; 8150,000; 0,10454
 528,32; 6874,754;  327,102; 8700,708; 0,10683
 528,90; 7328,166;  319,242; 9211,103; 0,10334
 529,49; 7267,190;  326,499; 9084,329; 0,10099
 530,07; 7193,992;  319,326; 9020,797; 0,10234
 530,66; 7314,495;  362,735; 9147,239; 0,10162
 531,24; 7355,609;  355,365; 9209,779; 0,10205
 531,82; 7421,854;  333,281; 9279,736; 0,10109
 532,41; 7501,871;  335,565; 9393,586; 0,10174
 532,99; 7971,171;  342,162; 9986,318; 0,10180
 533,58; 8192,136;  372,468;10193,546; 0,09897
 534,16; 8020,851;  332,112; 9991,844; 0,09911
 534,75; 8089,563;  369,301;10039,107; 0,09779
 535,33; 7905,702;  325,694; 9797,634; 0,09677
 535,92; 7618,730;  313,586; 9428,243; 0,09611
 536,50; 7381,518;  342,084; 9137,723; 0,09673
 537,08; 7437,285;  307,677; 9259,770; 0,09886
 537,67; 7950,573;  359,655; 9875,081; 0,09813
 538,25; 8204,989;  343,448;10185,392; 0,09757
 538,84; 8380,878;  366,201;10378,470; 0,09665
 539,42; 8427,613;  338,703;10406,311; 0,09504
 540,00; 8337,974;  346,201;10308,475; 0,09572
 540,59; 8579,919;  357,330;10646,413; 0,09737
 541,17; 8854,848;  357,702;10925,381; 0,09471
 541,76; 9061,689;  406,348;11157,524; 0,09417
 542,34; 9057,823;  349,575;11150,021; 0,09351
 542,92; 9121,603;  323,025;11231,487; 0,09335
 543,51; 9310,423;  340,954;11483,552; 0,09422
 544,09; 9576,589;  342,869;11768,570; 0,09251
 544,68; 9657,803;  338,745;11846,358; 0,09161
 545,26; 9414,258;  322,037;11528,122; 0,09078
 545,84; 9255,640;  345,898;11355,218; 0,09190
 546,43; 9457,271;  352,237;11633,034; 0,09306
 547,01; 9995,806;  341,794;12328,290; 0,09398
 547,59;10811,663;  333,287;13295,950; 0,09240
 548,18;11040,608;  319,020;13477,768; 0,08896
 548,76;10643,288;  343,821;12956,009; 0,08798
 549,34;10602,247;  347,592;12959,278; 0,08985
 549,93;10934,048;  331,908;13396,520; 0,09070
 550,51;11190,965;  341,259;13655,715; 0,08891
 551,09;11471,752;  332,512;14064,419; 0,09088
 551,68;12474,672;  325,956;15313,372; 0,09120
 552,26;13181,977;  319,078;16054,329; 0,08753
 552,84;13242,365;  330,176;16126,793; 0,08756
 553,43;13629,087;  330,518;16609,824; 0,08783
 554,01;13859,057;  327,864;16846,107; 0,08663
 554,59;14197,562;  334,176;17304,756; 0,08783
 555,18;14918,045;  315,864;18210,252; 0,08830
 555,76;15444,131;  296,268;18770,006; 0,08620
 556,34;15493,347;  334,064;18803,180; 0,08577
 556,93;15673,963;  332,732;19037,109; 0,08608
 557,51;16005,813;  379,596;19407,863; 0,08555
 558,09;16216,264;  325,126;19653,461; 0,08504
 558,68;16155,354;  310,223;19578,646; 0,08495
 559,26;16533,686;  305,494;20079,125; 0,08582
 559,84;17239,189;  338,257;20928,541; 0,08575
 560,42;17901,643;  323,273;21632,443; 0,08359
 561,01;18078,139;  329,274;21801,416; 0,08270
 561,59;18031,271;  343,752;21761,336; 0,08310
 562,17;18080,828;  320,015;21822,777; 0,08303
 562,75;18383,283;  303,459;22212,414; 0,08343
 563,34;18963,514;  350,306;22840,463; 0,08217
 563,92;19361,641;  334,385;23309,400; 0,08188
 564,50;19784,189;  347,287;23816,904; 0,08188
 565,08;19943,199;  332,575;23990,188; 0,08148
 565,67;20316,797;  315,524;24407,879; 0,08082
 566,25;20820,037;  324,361;25043,109; 0,08136
 566,83;21607,633;  310,043;26002,693; 0,08148
 567,41;22385,004;  307,694;26864,346; 0,08023
 568,00;22976,988;  318,602;27578,098; 0,08029
 568,58;23916,414;  330,325;28691,645; 0,08007
 569,16;25205,535;  308,204;30254,402; 0,08019
 569,74;26539,006;  323,078;31694,836; 0,07797
 570,33;26992,566;  307,979;32238,350; 0,07794
 570,91;27877,898;  335,354;33287,762; 0,07788
 571,49;28772,996;  365,136;34196,570; 0,07588
 572,07;28197,297;  409,648;33379,770; 0,07427
 572,65;27780,705;  325,620;33166,969; 0,07780
 573,24;29670,334;  314,094;35402,422; 0,07746
 573,82;31119,877;  345,978;36940,250; 0,07523
 574,40;31417,781;  307,643;37206,457; 0,07411
 574,98;30801,537;  325,149;36321,063; 0,07229
 575,56;29839,057;  342,797;35305,594; 0,07384
 576,15;30645,021;  331,283;36444,941; 0,07603
 576,73;32258,084;  345,304;38271,254; 0,07497
 577,31;34326,020;  332,864;40730,934; 0,07497
 577,89;35237,004;  434,001;41372,285; 0,07051
 578,47;32561,059;  342,360;38100,273; 0,06890
 579,05;31259,273;  335,571;36961,430; 0,07350
 579,64;32218,877;  327,978;38149,742; 0,07408
 580,22;33020,066;  315,740;38993,223; 0,07285
 580,80;34913,750;  321,439;41491,742; 0,07560
 581,38;37980,512;  336,699;44793,004; 0,07224
 581,96;37095,371;  345,000;43209,230; 0,06683
 582,54;34097,602;  320,162;39879,230; 0,06862
 583,12;32199,881;  334,679;37817,656; 0,07052
 583,71;32323,039;  348,958;38114,020; 0,07229
 584,29;33798,375;  366,913;39877,848; 0,07256
 584,87;35148,863;  312,704;41334,879; 0,07099
 585,45;35412,723;  339,094;41426,105; 0,06872
 586,03;34298,883;  329,060;40190,816; 0,06946
 586,61;34268,051;  324,046;40341,074; 0,07148
 587,19;35214,164;  343,024;41367,223; 0,07057
 587,77;34864,234;  290,143;40869,516; 0,06955
 588,35;34404,816;  318,539;40352,125; 0,06984
 588,94;34149,941;  349,931;40041,684; 0,06978
 589,52;34177,777;  300,891;40129,879; 0,07030
 590,10;34250,621;  301,820;40146,281; 0,06954
 590,68;34379,434;  373,949;40275,145; 0,06944
 591,26;34446,371;  317,385;40355,266; 0,06935
 591,84;34578,758;  322,392;40498,332; 0,06922
 592,42;35400,289;  344,590;41463,688; 0,06928
 593,00;36039,957;  360,912;42085,039; 0,06797
 593,58;35623,297;  342,212;41580,227; 0,06776
 594,16;35330,859;  344,508;41272,152; 0,06812
 594,74;35608,164;  355,773;41625,711; 0,06845
 595,32;35560,367;  341,253;41529,727; 0,06800
 595,90;35505,563;  325,978;41413,207; 0,06742
 596,49;35166,063;  296,176;41045,473; 0,06767
 597,07;35435,988;  292,327;41379,789; 0,06786
 597,65;35431,000;  300,479;41331,523; 0,06743
 598,23;35612,633;  299,564;41577,086; 0,06778
 598,81;35874,523;  308,069;41853,652; 0,06748
 599,39;36014,555;  320,103;41912,695; 0,06642
 599,97;35769,859;  322,623;41645,785; 0,06661
 600,55;35913,996;  314,854;41803,969; 0,06649
 601,13;35805,004;  328,370;41685,090; 0,06660
 601,71;35700,160;  319,533;41543,684; 0,06639
 602,29;35976,051;  325,929;41870,480; 0,06645
 602,87;36003,867;  312,996;41923,664; 0,06665
 603,45;35924,711;  325,775;41771,234; 0,06604
 604,03;35807,531;  321,136;41569,832; 0,06535
 604,61;35924,523;  356,322;41745,887; 0,06583
 605,19;35959,266;  323,982;41766,016; 0,06556
 605,77;36112,086;  326,862;41873,930; 0,06484
 606,35;36122,988;  319,249;41888,105; 0,06484
 606,93;36063,855;  313,952;41878,719; 0,06545
 607,51;35971,285;  324,376;41718,586; 0,06492
 608,09;36040,773;  311,962;41753,996; 0,06442
 608,67;35858,602;  322,717;41587,102; 0,06491
 609,25;35854,090;  331,263;41568,695; 0,06478
 609,83;35861,488;  317,536;41591,645; 0,06491
 610,41;35733,789;  303,102;41406,539; 0,06450
 610,99;35760,266;  329,845;41430,703; 0,06447
 611,57;35708,441;  296,668;41312,484; 0,06380
 612,14;35698,863;  327,389;41321,168; 0,06406
 612,72;35561,332;  311,352;41132,063; 0,06372
 613,30;35634,594;  338,004;41230,605; 0,06391
 613,88;35520,488;  304,866;41069,121; 0,06354
 614,46;35162,410;  317,355;40657,109; 0,06359
 615,04;35479,047;  390,636;40986,840; 0,06332
 615,62;35058,500;  316,223;40512,039; 0,06332
 616,20;34988,051;  328,045;40450,391; 0,06356
 616,78;35017,477;  340,163;40455,777; 0,06327
 617,36;34918,867;  313,250;40316,891; 0,06295
 617,94;34679,758;  298,413;39993,602; 0,06242
 618,52;34543,914;  316,710;39775,777; 0,06178
 619,10;34503,617;  310,413;39729,207; 0,06176
 619,67;34357,121;  336,620;39548,621; 0,06168
 620,25;34371,766;  294,345;39558,551; 0,06153
 620,83;34109,941;  342,349;39293,797; 0,06202
 621,41;34142,566;  341,967;39334,578; 0,06206
 621,99;34262,777;  334,842;39444,766; 0,06173
 622,57;34105,426;  316,482;39241,633; 0,06146
 623,15;34401,855;  317,151;39589,309; 0,06153
 623,73;34417,387;  297,936;39630,352; 0,06175
 624,30;34522,867;  319,229;39719,484; 0,06143
 624,88;34254,105;  308,892;39418,344; 0,06150
 625,46;34308,250;  287,449;39491,773; 0,06159
 626,04;34577,797;  338,445;39816,785; 0,06183
 626,62;34537,148;  319,101;39770,898; 0,06181
 627,20;34678,262;  347,512;39916,352; 0,06167
 627,78;34767,375;  323,829;39982,750; 0,06123
 628,35;34707,762;  369,525;39958,555; 0,06180
 628,93;34871,617;  298,776;40187,492; 0,06211
 629,51;35100,574;  340,636;40457,410; 0,06225
 630,09;34986,273;  306,174;40318,043; 0,06211
 630,67;35306,172;  335,580;40651,246; 0,06177
 631,25;35421,047;  334,271;40764,391; 0,06156
 631,82;35702,285;  331,582;41041,664; 0,06106
 632,40;35739,563;  332,740;41070,559; 0,06091
 632,98;35842,031;  322,858;41180,293; 0,06081
 633,56;36059,527;  336,585;41407,766; 0,06059
 634,14;36285,910;  328,623;41658,645; 0,06048
 634,71;36430,488;  329,821;41828,160; 0,06052
 635,29;36442,539;  309,582;41882,195; 0,06090
 635,87;36517,977;  319,399;41937,875; 0,06059
 636,45;36694,484;  345,444;42147,574; 0,06071
 637,03;36883,457;  324,225;42377,664; 0,06080
 637,60;36975,184;  387,676;42442,207; 0,06048
 638,18;37038,840;  322,112;42542,125; 0,06065
 638,76;37184,754;  317,712;42688,344; 0,06043
 639,34;37396,246;  355,373;42919,641; 0,06036
 639,91;37446,840;  342,463;42960,344; 0,06017
 640,49;37486,188;  332,583;42977,680; 0,05987
 641,07;37543,168;  317,446;43053,051; 0,05995
 641,65;37602,613;  323,705;43054,727; 0,05928
 642,22;37515,504;  330,095;42969,789; 0,05944
 642,80;37642,992;  309,574;43106,195; 0,05931
 643,38;37653,523;  294,997;43093,547; 0,05904
 643,96;37849,816;  334,317;43347,492; 0,05939
 644,53;37719,867;  314,966;43184,020; 0,05922
 645,11;37896,281;  333,772;43354,309; 0,05892
 645,69;37979,996;  352,438;43445,477; 0,05890
 646,27;37901,293;  329,755;43364,070; 0,05896
 646,84;38099,336;  343,851;43576,367; 0,05883
 647,42;37850,320;  325,864;43251,027; 0,05840
 648,00;37922,414;  283,483;43358,266; 0,05859
 648,57;38170,875;  312,573;43627,871; 0,05848
 649,15;38206,578;  311,762;43661,477; 0,05841
 649,73;38324,492;  339,455;43789,941; 0,05838
 650,31;38261,598;  310,378;43735,688; 0,05852
 650,88;38337,793;  332,071;43831,801; 0,05864
 651,46;38438,750;  327,577;43935,359; 0,05851
 652,04;38396,605;  292,353;43873,652; 0,05833
 652,61;38639,156;  318,683;44179,199; 0,05864
 653,19;38819,629;  340,782;44350,820; 0,05833
 653,77;38855,320;  308,318;44411,324; 0,05848
 654,34;39094,004;  320,458;44727,211; 0,05891
 654,92;40324,492;  321,574;46571,719; 0,06302
 655,50;49749,762;  313,950;57444,570; 0,06283
 656,07;53755,715;  307,380;60268,895; 0,04994
 656,65;44622,566;  299,769;49930,965; 0,04913
 657,23;40517,656;  460,825;46215,434; 0,05776
 657,80;40163,297;  330,195;45891,578; 0,05835
 658,38;40253,453;  332,308;45956,336; 0,05799
 658,95;40518,223;  329,914;46250,957; 0,05791
 659,53;40571,047;  305,723;46266,742; 0,05746
 660,11;40894,824;  295,209;46640,125; 0,05748
 660,68;41381,047;  364,466;47165,227; 0,05729
 661,26;41764,961;  315,738;47669,266; 0,05784
 661,84;41976,855;  339,481;47928,133; 0,05802
 662,41;42450,035;  304,854;48444,648; 0,05776
 662,99;42775,992;  310,867;48809,129; 0,05769
 663,56;43165,813;  300,030;49197,164; 0,05717
 664,14;43577,738;  305,529;49640,113; 0,05694
 664,72;43813,043;  312,342;49911,949; 0,05698
 665,29;44387,973;  316,532;50538,797; 0,05674
 665,87;44737,043;  316,858;50927,691; 0,05666
 666,44;44963,355;  320,804;51239,988; 0,05713
 667,02;45129,426;  316,233;51415,176; 0,05701
 667,59;45580,086;  297,903;51851,457; 0,05633
 668,17;45917,840;  311,462;52243,398; 0,05641
 668,75;46133,383;  326,259;52469,746; 0,05627
 669,32;46166,902;  328,418;52486,012; 0,05609
 669,90;46334,609;  306,151;52673,059; 0,05603
 670,47;46375,258;  283,951;52748,133; 0,05624
 671,05;46398,891;  315,813;52759,055; 0,05615
 671,62;46336,262;  293,350;52670,484; 0,05598
 672,20;46558,602;  303,629;52915,754; 0,05593
 672,77;46378,520;  325,582;52726,363; 0,05608
 673,35;46359,105;  330,765;52685,742; 0,05593
 673,93;46630,531;  307,001;53014,137; 0,05607
 674,50;46612,164;  317,357;53024,859; 0,05634
 675,08;46640,578;  312,307;53038,137; 0,05618
 675,65;46801,223;  277,426;53216,438; 0,05610
 676,23;47112,152;  323,072;53543,258; 0,05593
 676,80;47347,066;  322,498;53900,023; 0,05666
 677,38;47323,750;  293,385;53868,008; 0,05658
 677,95;47691,793;  320,784;54339,199; 0,05703
 678,53;48048,816;  315,324;54684,531; 0,05653
 679,10;47914,359;  334,090;54514,672; 0,05642
 679,68;48289,313;  304,076;54926,871; 0,05627
 680,25;48831,152;  348,572;55554,227; 0,05640
 680,83;48540,594;  295,945;55138,211; 0,05567
 681,40;48873,453;  335,938;55532,293; 0,05583
 681,98;48674,613;  278,101;55335,977; 0,05601
 682,55;48856,941;  314,640;55580,426; 0,05634
 683,12;48949,672;  304,096;55685,441; 0,05632
 683,70;48967,973;  319,866;55718,035; 0,05643
 684,27;48958,867;  297,935;55712,422; 0,05644
 684,85;49299,004;  320,288;56038,406; 0,05599
 685,42;49293,539;  299,078;55991,926; 0,05565
 686,00;49345,609;  322,617;56050,535; 0,05567
 686,57;49872,504;  327,113;56713,582; 0,05617
 687,15;49805,465;  310,196;56621,039; 0,05603
 687,72;49967,508;  295,796;56781,586; 0,05583
 688,29;49928,066;  308,812;56715,680; 0,05568
 688,87;50080,988;  313,068;56937,207; 0,05605
 689,44;50148,230;  277,837;56983,203; 0,05578
 690,02;50398,172;  311,190;57270,969; 0,05584
 690,59;50472,605;  317,683;57420,836; 0,05635
 691,17;50696,707;  310,463;57627,164; 0,05597
 691,74;50918,711;  318,976;57871,406; 0,05592
 692,31;50935,297;  299,322;57852,164; 0,05561
 692,89;51150,934;  289,585;58121,703; 0,05578
 693,46;51557,258;  300,031;58590,320; 0,05584
 694,04;51471,844;  306,357;58540,563; 0,05620
 694,61;51687,066;  325,723;58794,379; 0,05629
 695,18;51872,652;  301,256;59028,563; 0,05643
 695,76;51887,770;  315,192;59022,719; 0,05627
 696,33;52118,402;  307,038;59281,770; 0,05624
 696,90;52454,746;  312,088;59613,645; 0,05587
 697,48;52443,242;  303,791;59606,820; 0,05591
 698,05;52577,105;  291,743;59763,484; 0,05593
 698,62;52816,051;  327,446;60044,328; 0,05603
 699,20;52875,738;  299,856;60113,863; 0,05602
 699,77;53104,895;  314,795;60333,434; 0,05573
 700,35;53225,430;  292,728;60468,285; 0,05570
 700,92;53033,719;  317,694;60292,422; 0,05603
 701,49;53357,914;  311,787;60598,523; 0,05557
 702,07;53676,398;  335,063;60971,645; 0,05567
 702,64;53645,980;  296,679;60882,664; 0,05524
 703,21;53665,270;  330,262;60962,133; 0,05569
 703,78;53810,551;  326,505;61124,387; 0,05566
 704,36;53752,738;  325,258;61058,793; 0,05566
 704,93;53886,715;  308,884;61206,875; 0,05562
 705,50;53817,707;  289,800;61101,320; 0,05541
 706,08;54100,547;  300,853;61521,926; 0,05612
 706,65;54066,563;  326,393;61438,508; 0,05583
 707,22;54389,750;  324,602;61828,801; 0,05599
 707,80;54462,301;  330,628;61867,340; 0,05568
 708,37;54271,938;  313,505;61605,164; 0,05534
 708,94;54000,445;  308,571;61356,707; 0,05576
 709,51;54312,160;  306,300;61705,441; 0,05572
 710,09;54415,078;  323,966;61762,090; 0,05531
 710,66;54511,695;  316,193;61914,949; 0,05561
 711,23;54620,840;  328,865;62005,336; 0,05538
 711,81;54582,496;  314,325;61964,410; 0,05539
 712,38;54582,344;  292,038;62005,492; 0,05566
 712,95;54884,473;  327,621;62353,750; 0,05573
 713,52;54793,773;  327,043;62318,785; 0,05620
 714,10;54751,012;  312,710;62218,641; 0,05583
 714,67;54948,773;  331,232;62476,828; 0,05608
 715,24;54859,199;  323,915;62402,285; 0,05626
 715,81;54566,301;  287,431;62018,852; 0,05588
 716,38;54980,594;  307,131;62531,781; 0,05619
 716,96;55048,992;  318,920;62580,766; 0,05600
 717,53;55039,504;  304,943;62558,520; 0,05590
 718,10;55136,699;  323,469;62643,547; 0,05574
 718,67;54955,355;  330,276;62472,113; 0,05599
 719,25;55401,086;  298,375;62944,988; 0,05572
 719,82;55297,535;  377,228;62808,266; 0,05567
 720,39;54948,633;  303,241;62398,375; 0,05550
 720,96;55373,359;  296,244;62881,996; 0,05550
 721,53;55198,406;  299,480;62650,535; 0,05528
 722,11;55250,098;  281,389;62742,840; 0,05550
 722,68;55192,492;  327,785;62705,746; 0,05574
 723,25;55540,250;  307,952;63116,324; 0,05582
 723,82;55689,703;  331,174;63303,469; 0,05596
 724,39;55595,441;  316,807;63204,863; 0,05601
 724,96;55933,809;  305,220;63551,828; 0,05574
 725,54;55900,766;  321,836;63525,164; 0,05583
 726,11;55889,324;  291,179;63470,418; 0,05551
 726,68;55784,594;  288,705;63350,008; 0,05550
 727,25;55936,633;  297,305;63504,883; 0,05539
 727,82;55658,012;  289,544;63162,441; 0,05520
 728,39;55963,379;  299,681;63499,219; 0,05514
 728,96;56171,152;  299,283;63776,574; 0,05543
 729,54;56327,477;  300,103;63968,535; 0,05552
 730,11;56359,250;  337,509;64052,082; 0,05588
 730,68;56323,887;  285,535;63979,152; 0,05561
 731,25;56173,395;  318,545;63756,156; 0,05529
 731,82;56728,418;  318,208;64444,973; 0,05568
 732,39;56576,789;  268,700;64245,633; 0,05545
 732,96;56665,527;  307,720;64394,926; 0,05582
 733,53;56531,707;  295,169;64226,301; 0,05569
 734,10;56990,598;  314,159;64681,398; 0,05526
 734,68;56861,742;  308,575;64579,781; 0,05556
 735,25;56879,043;  290,588;64659,172; 0,05595
 735,82;56749,488;  296,231;64426,020; 0,05537
 736,39;57063,625;  324,217;64790,184; 0,05545
 736,96;56856,191;  289,826;64522,348; 0,05520
 737,53;56997,699;  332,999;64684,570; 0,05525
 738,10;56813,465;  286,965;64524,641; 0,05554
 738,67;56815,641;  313,768;64547,660; 0,05570
 739,24;56874,238;  318,754;64647,926; 0,05593
 739,81;56604,930;  286,317;64246,738; 0,05526
 740,38;56279,398;  265,693;63894,938; 0,05536
 740,95;56380,313;  313,810;64094,309; 0,05598
 741,52;56448,336;  294,572;64138,941; 0,05574
 742,09;55799,938;  335,325;63400,000; 0,05577
 742,66;56253,824;  287,955;63930,457; 0,05582
 743,23;56118,867;  325,504;63861,508; 0,05644
 743,80;56260,887;  321,287;63920,262; 0,05573
 744,37;55941,586;  306,657;63629,094; 0,05621
 744,94;55814,504;  312,923;63506,762; 0,05637
 745,51;55775,000;  293,406;63430,633; 0,05614
 746,09;55760,660;  343,325;63432,191; 0,05631
 746,66;55144,777;  311,835;62717,250; 0,05618
 747,23;55386,773;  367,531;63029,645; 0,05649
 747,80;55111,246;  301,000;62722,141; 0,05647
 748,36;54695,051;  299,373;62309,301; 0,05690
 748,93;54861,609;  285,269;62515,016; 0,05699
 749,50;54831,078;  330,052;62509,871; 0,05724
 750,07;54786,777;  315,115;62458,895; 0,05723
 750,64;54620,684;  299,761;62287,793; 0,05734
 751,21;54145,930;  322,134;61758,969; 0,05745
 751,78;54094,242;  316,247;61843,027; 0,05846
 752,35;53967,148;  316,670;61687,902; 0,05839
 752,92;53765,207;  313,349;61531,895; 0,05892
 753,49;53500,344;  395,979;61249,926; 0,05916
 754,06;53504,301;  324,078;61286,328; 0,05931
 754,63;53504,496;  336,594;61323,238; 0,05959
 755,20;52913,813;  294,201;60628,602; 0,05942
 755,77;53281,801;  350,320;61044,719; 0,05943
 756,34;53135,117;  323,436;60891,141; 0,05951
 756,91;52796,891;  299,796;60502,496; 0,05948
 757,48;52949,867;  302,325;60617,301; 0,05905
 758,05;52894,086;  342,878;60616,121; 0,05954
 758,62;52322,164;  301,748;59962,781; 0,05952
 759,19;52408,359;  342,804;60078,652; 0,05968
 759,75;52234,844;  293,597;59875,891; 0,05960
 760,32;52120,391;  310,073;59687,145; 0,05920
 760,89;51816,770;  312,382;59418,660; 0,05979
 761,46;51554,660;  325,175;59138,051; 0,05995
 762,03;51599,125;  318,215;59301,371; 0,06077
 762,60;51344,844;  299,471;59012,582; 0,06078
 763,17;51362,805;  313,260;59051,059; 0,06093
 763,74;51347,422;  318,523;59026,262; 0,06088
 764,31;51146,434;  290,586;58810,379; 0,06096
 764,87;51208,488;  307,496;58805,121; 0,06041
 765,44;50874,813;  300,535;58436,098; 0,06051
 766,01;50553,059;  317,691;58118,613; 0,06093
 766,58;50770,828;  425,667;58303,934; 0,06056
 767,15;50387,512;  321,290;57853,297; 0,06036
 767,72;50346,070;  299,160;57847,125; 0,06065
 768,28;50327,777;  315,279;57838,043; 0,06076
 768,85;50290,918;  311,225;57804,789; 0,06083
 769,42;50041,422;  309,198;57498,457; 0,06068
 769,99;49769,531;  266,828;57202,051; 0,06075
 770,56;50003,082;  308,844;57456,320; 0,06069
 771,13;49680,645;  303,447;57146,938; 0,06115
 771,69;49575,695;  294,733;57023,488; 0,06112
 772,26;49461,977;  290,979;56930,391; 0,06141
 772,83;49261,887;  289,812;56740,016; 0,06172
 773,40;49239,309;  300,031;56754,953; 0,06204
 773,97;49135,918;  321,824;56645,035; 0,06214
 774,53;49059,453;  314,214;56500,926; 0,06170
 775,10;48863,680;  294,720;56314,457; 0,06198
 775,67;48942,234;  311,183;56417,555; 0,06210
 776,24;48810,031;  324,866;56272,063; 0,06217
 776,81;48567,055;  296,098;56015,332; 0,06232
 777,37;48609,836;  294,718;56125,988; 0,06279
 777,94;48397,277;  286,967;55903,113; 0,06296
 778,51;48391,434;  318,080;55942,879; 0,06336
 779,08;48147,758;  330,286;55651,563; 0,06331
 779,64;48046,195;  284,849;55593,563; 0,06372
 780,21;48148,430;  326,649;55734,867; 0,06395
 780,78;48091,250;  304,198;55697,520; 0,06415
 781,35;47895,703;  302,508;55430,723; 0,06383
 781,91;47720,109;  282,697;55245,191; 0,06395
 782,48;47644,215;  291,540;55172,008; 0,06407
 783,05;47249,898;  294,483;54661,047; 0,06365
 783,62;47247,770;  316,959;54645,105; 0,06357
 784,18;47068,391;  309,535;54466,676; 0,06379
 784,75;46835,000;  297,952;54159,391; 0,06348
 785,32;46786,883;  315,954;54133,324; 0,06374
 785,88;46596,625;  296,394;53863,848; 0,06332
 786,45;46593,129;  330,633;53940,609; 0,06402
 787,02;46464,809;  286,043;53828,840; 0,06426
 787,58;46293,891;  339,116;53631,488; 0,06433
 788,15;45950,027;  325,032;53241,086; 0,06438
 788,72;45627,746;  300,505;52868,504; 0,06436
 789,29;45481,859;  291,204;52758,941; 0,06484
 789,85;45285,262;  316,500;52526,379; 0,06484
 790,42;45069,598;  300,100;52300,992; 0,06503
 790,99;44857,969;  332,619;52053,645; 0,06506
 791,55;44614,730;  307,239;51812,156; 0,06537
 792,12;44364,121;  307,578;51564,309; 0,06574
 792,69;44077,719;  323,698;51247,180; 0,06590
 793,25;43883,512;  297,541;51005,109; 0,06573
 793,82;43874,902;  330,087;51047,500; 0,06622
 794,38;43648,602;  281,243;50766,188; 0,06600
 794,95;43310,773;  311,536;50358,746; 0,06592
 795,52;42963,738;  302,542;49915,789; 0,06556
 796,08;42742,156;  295,108;49663,688; 0,06560
 796,65;42411,156;  336,981;49246,875; 0,06538
 797,22;42252,820;  285,934;49103,797; 0,06567
 797,78;41918,992;  310,187;48690,797; 0,06549
 798,35;41725,840;  320,543;48505,617; 0,06586
 798,91;41555,160;  336,272;48303,512; 0,06585
 799,48;41344,152;  323,579;48135,617; 0,06654
 800,05;41057,082;  304,558;47800,164; 0,06650
 800,61;40721,645;  311,774;47427,004; 0,06667
 801,18;40611,605;  325,977;47309,113; 0,06679
 801,74;40212,727;  326,350;46846,953; 0,06682
 802,31;40091,133;  336,183;46716,785; 0,06695
 802,88;39722,770;  308,802;46326,848; 0,06728
 803,44;39617,512;  321,415;46187,004; 0,06714
 804,01;39430,176;  315,745;45997,039; 0,06740
 804,57;39151,266;  320,844;45672,934; 0,06743
 805,14;38968,070;  311,717;45472,922; 0,06754
 805,70;38683,496;  326,073;45106,684; 0,06724
 806,27;38690,609;  298,593;45083,895; 0,06689
 806,83;38368,414;  325,882;44761,727; 0,06746
 807,40;38048,414;  307,358;44412,215; 0,06767
 807,96;38070,301;  397,191;44449,367; 0,06794
 808,53;37955,043;  298,201;44322,324; 0,06785
 809,10;37779,324;  319,820;44173,082; 0,06844
 809,66;37655,367;  322,380;44066,234; 0,06882
 810,23;37403,965;  358,999;43758,402; 0,06875
 810,79;37309,234;  323,782;43689,832; 0,06912
 811,36;37173,594;  310,285;43531,344; 0,06910
 811,92;37353,891;  319,544;43705,250; 0,06874
 812,49;37125,770;  294,841;43474,938; 0,06907
 813,05;37200,289;  333,493;43582,422; 0,06934
 813,62;37092,012;  315,176;43412,680; 0,06888
 814,18;36909,613;  332,002;43183,230; 0,06875
 814,75;36654,125;  314,925;42901,285; 0,06890
 815,31;36698,273;  355,635;42955,973; 0,06900
 815,87;36625,926;  350,794;42885,309; 0,06913
 816,44;36317,855;  315,810;42549,320; 0,06933
 817,00;36152,578;  303,363;42329,133; 0,06904
 817,57;36067,477;  324,169;42253,355; 0,06932
 818,13;35685,867;  324,656;41770,871; 0,06896
 818,70;35475,168;  348,135;41565,949; 0,06944
 819,26;35528,957;  379,891;41562,035; 0,06880
 819,83;35382,898;  343,678;41415,488; 0,06899
 820,39;35298,555;  347,317;41334,035; 0,06918
 820,95;35079,262;  322,510;41081,191; 0,06918
 821,52;34778,840;  315,366;40740,387; 0,06929
 822,08;34751,340;  334,492;40737,992; 0,06965
 822,65;34630,664;  329,988;40596,523; 0,06964
 823,21;34305,176;  317,251;40203,523; 0,06950
 823,78;34499,645;  356,007;40438,852; 0,06965
 824,34;34275,117;  307,374;40183,773; 0,06965
 824,90;34338,980;  365,286;40291,438; 0,07011
 825,47;34166,379;  347,563;40073,594; 0,06992
 826,03;34015,363;  319,152;39918,398; 0,07011
 826,60;33826,523;  306,715;39686,176; 0,06997
 827,16;33993,453;  351,624;39908,438; 0,07034
 827,72;33887,859;  334,517;39787,492; 0,07034
 828,29;33560,414;  304,930;39437,758; 0,07068
 828,85;33717,406;  321,210;39617,621; 0,07066
 829,41;33530,836;  315,806;39406,234; 0,07074
 829,98;33575,844;  341,352;39448,457; 0,07067
 830,54;33478,785;  323,148;39348,680; 0,07079
 831,10;33376,500;  323,168;39261,637; 0,07116
 831,67;33390,652;  351,097;39286,512; 0,07131
 832,23;33296,375;  336,750;39184,047; 0,07138
 832,79;33142,875;  345,636;39022,223; 0,07161
 833,36;33144,375;  342,219;39036,254; 0,07174
 833,92;33061,863;  336,142;38925,148; 0,07157
 834,48;32977,285;  301,575;38779,023; 0,07098
 835,05;32910,082;  328,304;38773,152; 0,07186
 835,61;32945,098;  323,150;38816,496; 0,07188
 836,17;32921,266;  325,660;38845,570; 0,07253
 836,74;32911,570;  328,649;38814,098; 0,07231
 837,30;32782,445;  322,926;38637,809; 0,07203
 837,86;32668,053;  318,565;38512,160; 0,07212
 838,43;32510,139;  305,841;38363,832; 0,07253
 838,99;32591,008;  318,417;38441,797; 0,07236
 839,55;32541,457;  299,417;38408,387; 0,07260
 840,11;32485,951;  321,033;38362,875; 0,07288
 840,68;32402,303;  336,363;38269,094; 0,07297
 841,24;32270,279;  285,552;38122,633; 0,07297
 841,80;32179,396;  320,108;37978,410; 0,07262
 842,36;32242,492;  321,694;38083,344; 0,07298
 842,93;32194,275;  319,411;38053,176; 0,07328
 843,49;32065,852;  366,913;37923,219; 0,07364
 844,05;32060,307;  305,716;37885,328; 0,07315
 844,61;31901,752;  314,599;37720,914; 0,07343
 845,18;31770,486;  301,592;37579,570; 0,07357
 845,74;31774,346;  284,378;37592,324; 0,07363
 846,30;31699,984;  337,548;37492,375; 0,07361
 846,86;31602,168;  321,694;37375,344; 0,07356
 847,43;31632,098;  321,333;37395,883; 0,07338
 847,99;31371,195;  309,936;37079,863; 0,07327
 848,55;31351,512;  312,666;37081,375; 0,07357
 849,11;31323,369;  320,285;37038,496; 0,07348
 849,67;31197,268;  300,368;36913,082; 0,07372
 850,24;31055,160;  301,304;36744,723; 0,07372
 850,80;30917,779;  286,930;36617,105; 0,07411
 851,36;31059,693;  347,116;36743,574; 0,07374
 851,92;30868,068;  314,449;36580,047; 0,07443
 852,48;30781,482;  305,809;36449,813; 0,07408
 853,04;30709,811;  328,915;36354,129; 0,07401
 853,61;30662,244;  318,231;36297,203; 0,07398
 854,17;30595,080;  400,897;36161,066; 0,07348
 854,73;30439,063;  299,187;36036,578; 0,07398
 855,29;30285,549;  312,773;35881,414; 0,07434
 855,85;30109,502;  302,419;35707,727; 0,07475
 856,41;30063,867;  292,769;35638,445; 0,07454
 856,97;30107,924;  304,102;35680,738; 0,07444
 857,54;29945,027;  295,658;35460,859; 0,07410
 858,10;29903,443;  333,714;35406,227; 0,07412
 858,66;29693,350;  308,520;35188,742; 0,07446
 859,22;29662,719;  324,280;35154,438; 0,07452
 859,78;29426,074;  298,046;34900,406; 0,07479
 860,34;29422,066;  301,792;34857,613; 0,07433
 860,90;29476,633;  338,488;34910,375; 0,07426
 861,46;29273,359;  295,754;34708,359; 0,07466
 862,02;29128,779;  317,067;34529,262; 0,07461
 862,59;28934,162;  310,633;34362,523; 0,07542
 863,15;28932,070;  293,426;34337,504; 0,07509
 863,71;28919,691;  280,842;34332,258; 0,07518
 864,27;29025,527;  374,218;34430,199; 0,07505
 864,83;28647,973;  311,931;34005,742; 0,07521
 865,39;28723,563;  339,177;34049,379; 0,07468
 865,95;28573,625;  316,807;33897,254; 0,07496
 866,51;28488,648;  305,200;33828,723; 0,07536
 867,07;28340,754;  312,336;33668,098; 0,07557
 867,63;28260,406;  317,432;33554,676; 0,07535
 868,19;28286,982;  289,338;33597,973; 0,07544
 868,75;28170,600;  301,998;33463,352; 0,07552
 869,31;28176,068;  329,777;33494,523; 0,07591
 869,87;28045,117;  316,560;33335,813; 0,07584
 870,43;28004,340;  356,853;33308,383; 0,07622
 870,99;27888,598;  315,452;33220,332; 0,07677
 871,55;27761,816;  312,249;33108,828; 0,07729
 872,11;27771,170;  316,338;33088,535; 0,07689
 872,67;27766,648;  352,711;33102,332; 0,07723
 873,23;27687,365;  299,347;33061,512; 0,07781
 873,79;27656,033;  354,573;32991,648; 0,07753
 874,35;27614,547;  347,159;32961,270; 0,07776
 874,91;27367,850;  297,263;32650,561; 0,07742
 875,47;27306,107;  288,816;32585,131; 0,07751
 876,03;27387,627;  327,973;32714,684; 0,07804
 876,59;27322,926;  322,643;32636,449; 0,07802
 877,15;27331,051;  324,030;32647,736; 0,07804
 877,71;27409,207;  322,240;32759,000; 0,07828
 878,27;27417,561;  281,653;32754,273; 0,07797
 878,83;27551,211;  319,673;32887,520; 0,07772
 879,39;27504,307;  297,736;32804,969; 0,07731
 879,95;27697,270;  321,370;33038,867; 0,07741
 880,51;27744,143;  341,356;33096,695; 0,07749
 881,07;27761,613;  333,153;33095,410; 0,07717
 881,63;27757,604;  288,909;33150,910; 0,07786
 882,19;27974,197;  316,446;33393,605; 0,07771
 882,75;28040,904;  335,680;33501,969; 0,07814
 883,31;28142,730;  318,500;33617,559; 0,07801
 883,87;28191,426;  293,793;33670,785; 0,07788
 884,42;28370,316;  309,203;33887,332; 0,07795
 884,98;28436,326;  280,210;33974,578; 0,07798
 885,54;28593,803;  323,803;34173,340; 0,07823
 886,10;28690,160;  336,520;34298,176; 0,07838
 886,66;28787,119;  316,866;34411,715; 0,07830
 887,22;28849,287;  328,759;34458,691; 0,07798
 887,78;28882,154;  331,806;34497,457; 0,07798
 888,34;28815,600;  305,816;34449,758; 0,07832
 888,89;28814,057;  302,503;34459,141; 0,07845
 889,45;28851,010;  352,143;34489,418; 0,07840
 890,01;28633,307;  315,263;34238,980; 0,07844
 890,57;28524,906;  295,553;34111,547; 0,07842
 891,13;28409,727;  315,993;33997,707; 0,07878
 891,69;28200,293;  305,879;33767,906; 0,07904
 892,25;28006,609;  313,553;33556,363; 0,07933
 892,80;27864,348;  318,526;33397,730; 0,07950
 893,36;27612,301;  326,720;33125,590; 0,07993
 893,92;27413,006;  335,283;32913,453; 0,08031
 894,48;27244,547;  319,859;32666,150; 0,07967
 895,04;27161,764;  323,796;32588,756; 0,07998
 895,60;26970,260;  354,773;32343,150; 0,07986
 896,15;26787,617;  315,370;32119,750; 0,07970
 896,71;26599,313;  349,406;31854,127; 0,07925
 897,27;26429,324;  325,453;31667,689; 0,07943
 897,83;26330,930;  337,246;31560,869; 0,07962
 898,39;26104,764;  330,226;31269,174; 0,07931
 898,94;26092,041;  352,626;31297,063; 0,07998
 899,50;25714,996;  287,546;30850,461; 0,07989
 900,06;25587,414;  292,363;30727,797; 0,08034
 900,62;25595,699;  322,500;30739,631; 0,08046
 901,17;25637,084;  320,186;30802,000; 0,08063
 901,73;25343,883;  295,453;30432,104; 0,08031
 902,29;25303,973;  321,456;30364,086; 0,08010
 902,85;25182,869;  321,973;30208,764; 0,07996
 903,40;25114,703;  392,953;30099,547; 0,07977
 903,96;25052,840;  335,000;30043,344; 0,07987
 904,52;24876,670;  328,823;29813,859; 0,07959
 905,08;24716,926;  307,183;29644,199; 0,07985
 905,63;24740,727;  337,750;29683,807; 0,08011
 906,19;24667,197;  341,419;29614,199; 0,08040
 906,75;24502,461;  315,976;29437,990; 0,08065
 907,30;24411,430;  322,819;29329,543; 0,08069
 907,86;24279,293;  339,146;29184,607; 0,08095
 908,42;24179,330;  363,153;29041,650; 0,08068
 908,98;24136,189;  329,620;29019,066; 0,08103
 909,53;23998,076;  313,676;28824,916; 0,08055
 910,09;23981,840;  352,446;28805,350; 0,08067
 910,65;23923,609;  320,183;28725,104; 0,08042
 911,20;23748,670;  315,103;28542,783; 0,08084
 911,76;23739,373;  321,103;28519,920; 0,08068
 912,32;23683,891;  352,133;28480,619; 0,08120
 912,87;23553,533;  334,750;28316,291; 0,08103
 913,43;23380,514;  325,569;28157,490; 0,08178
 913,99;23365,424;  332,426;28124,311; 0,08157
 914,54;23212,027;  333,346;27947,199; 0,08170
 915,10;23214,627;  344,863;27948,434; 0,08170
 915,66;23059,473;  333,843;27772,287; 0,08184
 916,21;23106,061;  358,893;27821,607; 0,08182
 916,77;22957,820;  329,266;27647,113; 0,08179
 917,32;22832,689;  342,020;27506,791; 0,08200
 917,88;22682,854;  314,479;27318,801; 0,08180
 918,44;22644,820;  330,539;27283,377; 0,08202
 918,99;22489,027;  350,903;27115,893; 0,08243
 919,55;22397,156;  330,373;27002,000; 0,08231
 920,10;22335,656;  329,690;26937,877; 0,08247
 920,66;22269,256;  335,120;26853,430; 0,08243
 921,22;21985,727;  293,323;26517,900; 0,08240
 921,77;22183,529;  339,780;26720,053; 0,08195
 922,33;21904,457;  322,516;26438,211; 0,08281
 922,88;21922,820;  326,373;26443,873; 0,08255
 923,44;21744,633;  339,389;26272,783; 0,08334
 924,00;21756,273;  360,833;26269,199; 0,08312
 924,55;21591,746;  310,946;26086,520; 0,08322
 925,11;21587,791;  327,656;26085,363; 0,08334
 925,66;21442,713;  330,030;25899,340; 0,08318
 926,22;21362,713;  315,150;25805,840; 0,08318
 926,77;21348,953;  342,913;25787,227; 0,08325
 927,33;21228,027;  326,976;25647,494; 0,08330
 927,88;21031,496;  324,806;25408,188; 0,08328
 928,44;21057,434;  308,036;25442,143; 0,08326
 928,99;20956,867;  322,900;25342,744; 0,08370
 929,55;20943,510;  365,373;25320,967; 0,08376
 930,10;20809,646;  333,683;25134,137; 0,08322
 930,66;20803,086;  349,669;25150,053; 0,08369
 931,21;20653,264;  330,066;25002,613; 0,08422
 931,77;20508,070;  331,843;24813,777; 0,08401
 932,32;20451,117;  311,293;24737,750; 0,08380
 932,88;20443,391;  331,919;24742,340; 0,08413
 933,43;20336,424;  354,546;24600,811; 0,08401
 933,99;20198,146;  317,446;24447,779; 0,08413
 934,54;20111,154;  356,553;24343,576; 0,08431
 935,10;19998,813;  325,620;24237,484; 0,08474
 935,65;19969,697;  317,573;24160,721; 0,08395
 936,21;19870,250;  302,919;24081,447; 0,08465
 936,76;19835,699;  357,750;24023,211; 0,08457
 937,32;19731,598;  316,490;23926,971; 0,08497
 937,87;19660,561;  367,013;23831,037; 0,08499
 938,43;19645,994;  337,379;23809,449; 0,08480
 938,98;19548,924;  346,606;23696,680; 0,08493
 939,53;19301,494;  307,536;23426,150; 0,08535
 940,09;19378,250;  364,039;23507,891; 0,08536
 940,64;19190,541;  330,086;23288,033; 0,08538
 941,20;19172,400;  327,520;23265,367; 0,08536
 941,75;19081,746;  335,949;23133,123; 0,08498
 942,30;19026,400;  326,609;23077,324; 0,08516
 942,86;18846,613;  316,020;22871,221; 0,08536
 943,41;18874,080;  323,383;22878,430; 0,08488
 943,97;18742,264;  328,923;22731,424; 0,08516
 944,52;18710,910;  349,120;22719,500; 0,08576
 945,07;18641,359;  328,856;22631,084; 0,08560
 945,63;18567,373;  361,253;22525,557; 0,08544
 946,18;18456,217;  313,329;22422,061; 0,08586
 946,74;18333,477;  329,896;22316,307; 0,08680
 947,29;18298,424;  345,383;22262,164; 0,08664
 947,84;18264,109;  345,463;22238,930; 0,08701
 948,40;18209,590;  354,283;22138,906; 0,08638
 948,95;18119,561;  374,699;21994,311; 0,08578
 949,50;18033,734;  320,853;21901,193; 0,08577
 950,06;17947,010;  315,343;21798,094; 0,08580
 950,61;17851,926;  317,013;21674,791; 0,08565
 951,16;17866,787;  341,699;21696,354; 0,08583
 951,72;17779,033;  328,953;21590,311; 0,08579
 952,27;17724,551;  316,356;21540,957; 0,08609
 952,82;17561,896;  341,856;21377,557; 0,08692
 953,38;17551,633;  347,293;21349,006; 0,08662
 953,93;17397,164;  316,866;21156,010; 0,08638
 954,48;17334,547;  304,520;21099,574; 0,08674
 955,03;17270,527;  320,563;21010,557; 0,08659
 955,59;17196,926;  337,883;20933,357; 0,08694
 956,14;17137,656;  324,349;20850,250; 0,08665
 956,69;16991,010;  313,336;20693,604; 0,08707
 957,24;16944,334;  324,863;20621,277; 0,08680
 957,80;16899,150;  332,193;20558,971; 0,08668
 958,35;16768,480;  345,060;20392,063; 0,08659
 958,90;16705,496;  328,349;20320,246; 0,08662
 959,46;16630,664;  314,813;20244,896; 0,08690
 960,01;16543,807;  321,210;20149,254; 0,08716
 960,56;16440,607;  311,023;20028,123; 0,08722
 961,11;16389,717;  341,780;19956,270; 0,08716
 961,66;16272,863;  297,353;19813,641; 0,08694
 962,22;16272,740;  327,990;19812,863; 0,08708
 962,77;16158,000;  332,829;19671,803; 0,08709
 963,32;15985,193;  307,109;19447,703; 0,08666
 963,87;16012,696;  324,520;19473,566; 0,08657
 964,43;15872,337;  314,126;19302,424; 0,08653
 964,98;15903,523;  368,533;19323,627; 0,08641
 965,53;15694,240;  307,970;19081,119; 0,08640
 966,08;15701,227;  346,866;19087,438; 0,08655
 966,63;15536,577;  328,900;18904,447; 0,08688
 967,18;15484,927;  326,566;18860,768; 0,08732
 967,74;15339,010;  338,280;18698,416; 0,08776
 968,29;15224,483;  312,139;18552,326; 0,08748
 968,84;15180,030;  312,696;18491,916; 0,08734
 969,39;14982,174;  309,376;18249,277; 0,08731
 969,94;14941,040;  331,393;18220,383; 0,08795
 970,49;14923,776;  334,493;18175,291; 0,08738
 971,05;14787,924;  325,690;18011,246; 0,08738
 971,60;14679,327;  334,683;17874,477; 0,08733
 972,15;14557,793;  320,906;17710,006; 0,08686
 972,70;14568,356;  361,250;17720,066; 0,08701
 973,25;14418,940;  335,423;17528,996; 0,08666
 973,80;14329,877;  341,199;17446,477; 0,08735
 974,35;14197,847;  313,656;17294,844; 0,08745
 974,90;14095,117;  325,913;17165,637; 0,08743
 975,46;14023,650;  335,093;17083,080; 0,08760
 976,01;13959,650;  340,206;17021,221; 0,08806
 976,56;13829,870;  336,873;16863,770; 0,08808
 977,11;13667,276;  319,639;16673,439; 0,08821
 977,66;13490,243;  311,886;16437,311; 0,08765
 978,21;13478,337;  338,949;16425,244; 0,08788
 978,76;13365,354;  315,729;16309,356; 0,08835
 979,31;13265,940;  341,560;16166,604; 0,08794
 979,86;13147,823;  321,590;16027,063; 0,08795
 980,41;13067,960;  339,889;15936,970; 0,08828
 980,96;12861,323;  308,419;15667,900; 0,08763
 981,51;12868,684;  354,233;15650,816; 0,08718
 982,06;12774,410;  320,483;15544,354; 0,08722
 982,61;12652,554;  368,573;15415,583; 0,08811
 983,16;12501,130;  337,389;15246,920; 0,08840
 983,72;12391,867;  340,720;15110,470; 0,08834
 984,27;12301,950;  352,810;15016,460; 0,08891
 984,82;12191,233;  332,116;14886,377; 0,08894
 985,37;12064,033;  331,829;14730,396; 0,08894
 985,92;11933,830;  323,743;14573,066; 0,08896
 986,47;11817,410;  326,916;14444,174; 0,08941
 987,02;11771,663;  363,246;14357,077; 0,08871
 987,57;11609,420;  334,663;14161,747; 0,08862
 988,12;11507,943;  326,046;14052,720; 0,08905
 988,67;11440,400;  344,076;13970,917; 0,08922
 989,22;11345,773;  343,116;13840,757; 0,08876
 989,76;11247,660;  342,810;13735,253; 0,08924
 990,31;11143,707;  357,053;13610,970; 0,08946
 990,86;11011,896;  331,393;13473,486; 0,09007
 991,41;10920,684;  334,376;13362,050; 0,09012
 991,96;10815,613;  340,823;13218,177; 0,08968
 992,51;10742,714;  365,150;13122,137; 0,08965
 993,06;10672,930;  376,736;13025,747; 0,08938
 993,61;10591,627;  391,900;12917,964; 0,08923
 994,16;10437,856;  366,063;12740,100; 0,08940
 994,71;10298,771;  336,563;12554,187; 0,08863
 995,26;10242,486;  356,479;12483,227; 0,08872
 995,81;10218,157;  411,453;12431,280; 0,08838
 996,36;10055,370;  336,840;12250,800; 0,08846
 996,91; 9958,650;  383,083;12125,714; 0,08860
 997,46; 9936,380;  416,060;12074,117; 0,08797
 998,00; 9735,187;  351,789;11870,943; 0,08906
 998,55; 9676,637;  362,436;11794,634; 0,08898
 999,10; 9529,644;  335,819;11633,977; 0,08951
 999,65; 9472,370;  357,443;11553,483; 0,08931
1000,20; 9416,547;  388,166;11491,830; 0,08986
1000,75; 9382,003;  427,319;11418,377; 0,08899
1001,30; 9184,873;  354,716;11218,967; 0,09003
1001,85; 9111,190;  358,786;11119,483; 0,08971
1002,39; 9037,561;  379,113;11021,630; 0,08960
1002,94; 8887,023;  338,780;10859,420; 0,09017
1003,49; 8829,823;  365,256;10797,493; 0,09077
1004,04; 8796,146;  387,306;10738,090; 0,09024
1004,59; 8698,856;  415,506;10605,120; 0,08995
1005,14; 8536,134;  364,629;10427,347; 0,09041
1005,68; 8462,347;  355,613;10330,743; 0,09007
1006,23; 8378,196;  361,889;10233,000; 0,09039
1006,78; 8315,333;  368,796;10152,743; 0,09034
1007,33; 8215,427;  348,536;10034,720; 0,09035
1007,88; 8136,040;  358,353; 9932,217; 0,09024
1008,42; 8087,987;  383,746; 9875,250; 0,09061
1008,97; 7996,690;  363,986; 9764,117; 0,09046
1009,52; 7922,090;  357,970; 9674,340; 0,09049
1010,07; 7813,690;  335,506; 9567,073; 0,09148
1010,62; 7746,713;  347,163; 9471,924; 0,09102
1011,16; 7705,063;  363,590; 9415,930; 0,09098
1011,71; 7648,310;  352,223; 9345,510; 0,09083
1012,26; 7600,457;  389,313; 9282,820; 0,09107
1012,81; 7532,280;  366,883; 9203,290; 0,09104
1013,35; 7522,417;  382,616; 9200,693; 0,09169
1013,90; 7447,684;  364,389; 9102,137; 0,09116
1014,45; 7353,017;  335,509; 9002,356; 0,09168
1015,00; 7301,690;  350,053; 8929,097; 0,09135
1015,54; 7261,540;  358,333; 8864,333; 0,09067
1016,09; 7140,467;  333,803; 8738,930; 0,09161
1016,64; 7045,320;  330,663; 8596,644; 0,09027
1017,19; 6923,610;  317,963; 8462,384; 0,09094
1017,73; 6891,080;  383,216; 8394,490; 0,09026
1018,28; 6705,440;  347,166; 8180,037; 0,09058
1018,83; 6619,587;  358,283; 8042,693; 0,08895
1019,37; 6476,113;  333,733; 7885,047; 0,08969
1019,92; 6414,757;  361,786; 7791,400; 0,08900
1020,47; 6299,907;  352,613; 7663,210; 0,08963
1021,01; 6219,917;  340,866; 7571,914; 0,08989
1021,56; 6076,917;  316,960; 7420,100; 0,09103
1022,11; 6071,657;  344,176; 7412,487; 0,09135
1022,65; 6128,790;  492,306; 7422,330; 0,08973
1023,20; 5946,487;  376,536; 7246,720; 0,09112
1023,75; 5845,700;  358,120; 7138,394; 0,09187
1024,29; 5758,337;  340,039; 7031,867; 0,09168
1024,84; 5693,970;  354,376; 6948,097; 0,09162
1025,39; 5683,067;  389,063; 6918,900; 0,09112
1025,93; 5582,980;  346,919; 6809,707; 0,09142
1026,48; 5511,270;  338,616; 6720,283; 0,09122
1027,02; 5506,627;  394,599; 6708,773; 0,09172
1027,57; 5371,290;  345,359; 6542,934; 0,09101
1028,12; 5310,650;  333,916; 6471,030; 0,09102
1028,66; 5255,770;  348,806; 6404,217; 0,09133
1029,21; 5181,110;  333,713; 6304,967; 0,09056
1029,76; 5127,800;  339,803; 6241,130; 0,09080
1030,30; 5110,713;  380,986; 6207,597; 0,09058
1030,85; 5016,830;  370,063; 6108,160; 0,09162
1031,39; 4968,793;  370,733; 6040,474; 0,09099
1031,94; 4909,177;  343,223; 5972,513; 0,09092
1032,48; 4800,420;  324,673; 5838,660; 0,09060
1033,03; 4783,537;  329,169; 5817,297; 0,09064
1033,58; 4763,867;  368,229; 5782,210; 0,09049
1034,12; 4685,237;  360,720; 5686,133; 0,09042
1034,67; 4667,247;  399,076; 5649,287; 0,08993
1035,21; 4570,003;  365,473; 5551,737; 0,09114
1035,76; 4512,357;  344,960; 5484,537; 0,09106
1036,30; 4453,307;  348,030; 5413,547; 0,09128
1036,85; 4433,877;  380,396; 5377,013; 0,09085
1037,39; 4407,354;  416,466; 5334,184; 0,09069
1037,94; 4284,190;  349,196; 5207,890; 0,09158
1038,48; 4230,667;  338,643; 5141,737; 0,09135
1039,03; 4219,527;  373,493; 5108,557; 0,09031
1039,57; 4147,937;  366,930; 5024,490; 0,09055
1040,12; 4109,233;  364,776; 4981,644; 0,09096
1040,66; 4026,590;  348,836; 4879,820; 0,09061
1041,21; 3967,553;  352,936; 4811,423; 0,09113
1041,75; 3930,490;  351,656; 4769,130; 0,09143
1042,30; 4010,203;  459,243; 4828,610; 0,09007
1042,84; 3837,627;  342,613; 4642,390; 0,09000
1043,39; 3773,107;  344,900; 4561,894; 0,08994
1043,93; 3732,217;  343,566; 4520,994; 0,09088
1044,48; 3707,183;  362,359; 4489,937; 0,09132
1045,02; 3639,757;  343,566; 4416,013; 0,09184
1045,56; 3579,283;  331,503; 4340,793; 0,09148
1046,11; 3599,397;  386,669; 4333,570; 0,08938
1046,65; 3503,303;  347,596; 4235,907; 0,09066
1047,20; 3449,657;  330,393; 4167,097; 0,08991
1047,74; 3444,913;  381,756; 4147,160; 0,08964
1048,29; 3340,840;  322,349; 4045,970; 0,09118
1048,83; 3320,713;  347,240; 4011,200; 0,09069
1049,37; 3300,257;  351,456; 3983,350; 0,09049
1049,92; 3255,803;  356,576; 3936,160; 0,09155
1050,46; 3182,990;  342,889; 3850,480; 0,09168
1051,01; 3172,340;  352,203; 3833,090; 0,09142
1051,55; 3101,907;  341,103; 3753,723; 0,09205
1052,09; 3056,200;  343,909; 3693,370; 0,09164
1052,64; 3052,037;  354,220; 3679,400; 0,09080
1053,18; 3077,650;  423,710; 3684,783; 0,08947
1053,72; 2927,864;  334,703; 3533,437; 0,09115
1054,27; 2889,407;  335,210; 3491,753; 0,09196
1054,81; 2895,307;  364,639; 3485,010; 0,09097
1055,35; 2806,743;  327,106; 3388,440; 0,09152
1055,90; 2818,060;  366,440; 3392,307; 0,09140
1056,44; 2737,470;  329,490; 3299,423; 0,09109
1056,98; 2733,870;  355,383; 3278,530; 0,08955
1057,53; 2699,060;  362,373; 3248,990; 0,09179
1058,07; 2636,114;  345,326; 3171,057; 0,09115
1058,61; 2615,680;  351,180; 3140,150; 0,09047
1059,16; 2593,087;  368,546; 3108,967; 0,09058
1059,70; 2533,197;  347,456; 3047,287; 0,09174
1060,24; 2580,170;  412,843; 3069,753; 0,08845
1060,79; 2451,657;  341,276; 2943,720; 0,09102
1061,33; 2438,864;  362,563; 2916,407; 0,08990
1061,87; 2384,330;  337,963; 2852,107; 0,08941
1062,41; 2353,617;  340,879; 2816,517; 0,08990
1062,96; 2329,643;  341,323; 2783,697; 0,08933
1063,50; 2285,910;  341,463; 2740,027; 0,09116
1064,04; 2243,817;  337,530; 2700,487; 0,09327
1064,58; 2232,057;  343,353; 2670,340; 0,09063
1065,13; 2218,510;  356,750; 2655,497; 0,09157
1065,67; 2143,763;  322,683; 2574,650; 0,09223
1066,21; 2166,983;  364,620; 2595,043; 0,09254
1066,75; 2123,883;  353,186; 2547,043; 0,09306
1067,30; 2091,127;  347,159; 2501,800; 0,09184
1067,84; 2056,747;  342,446; 2455,923; 0,09091
1068,38; 2051,210;  350,966; 2449,183; 0,09134
1068,92; 2047,493;  372,113; 2430,747; 0,08947
1069,47; 1999,227;  356,023; 2392,167; 0,09312
1070,01; 2005,903;  377,866; 2389,163; 0,09181
1070,55; 1956,390;  348,099; 2332,950; 0,09136
1071,09; 1930,473;  353,516; 2300,533; 0,09155
1071,63; 1940,230;  383,440; 2299,667; 0,09022
1072,17; 1868,197;  334,406; 2224,487; 0,09071
1072,72; 1861,750;  349,373; 2212,077; 0,09048
1073,26; 1944,293;  436,223; 2281,950; 0,08775
1073,80; 1828,013;  353,056; 2174,157; 0,09155
1074,34; 1812,873;  359,900; 2157,660; 0,09247
1074,88; 1882,687;  436,163; 2207,467; 0,08797
1075,42; 1766,940;  355,943; 2099,837; 0,09199
1075,97; 1754,367;  363,093; 2083,614; 0,09225
1076,51; 1736,167;  359,293; 2053,867; 0,09017
1077,05; 1694,707;  344,363; 2008,640; 0,09078
1077,59; 1697,160;  366,263; 2009,293; 0,09150
1078,13; 1680,313;  361,016; 1990,213; 0,09163
1078,67; 1651,447;  352,346; 1945,463; 0,08860
1079,21; 1747,650;  459,393; 2036,727; 0,08792
1079,75; 1628,030;  365,949; 1928,377; 0,09271
1080,30; 1549,840;  321,243; 1838,057; 0,09152
1080,84; 1593,880;  372,430; 1875,903; 0,09022
1081,38; 1546,073;  337,859; 1823,847; 0,08987
1081,92; 1544,547;  356,223; 1821,410; 0,09096
1082,46; 1541,750;  373,710; 1816,893; 0,09186
1083,00; 1513,980;  352,409; 1781,943; 0,09015
1083,54; 1511,473;  370,983; 1773,647; 0,08986
1084,08; 1484,673;  363,356; 1750,513; 0,09240
1084,62; 1487,250;  376,706; 1744,307; 0,09042
1085,16; 1453,477;  365,873; 1706,487; 0,09083
1085,70; 1439,317;  363,773; 1692,007; 0,09165
1086,24; 1392,437;  342,343; 1640,340; 0,09205
1086,78; 1401,053;  357,363; 1641,280; 0,08997
1087,32; 1415,220;  382,909; 1653,523; 0,09020
1087,86; 1374,893;  352,190; 1610,090; 0,08990
1088,40; 1366,153;  362,673; 1597,190; 0,08999
1088,94; 1386,020;  389,316; 1610,973; 0,08838
1089,48; 1343,793;  367,039; 1570,150; 0,09052
1090,02; 1308,787;  349,173; 1535,157; 0,09198
1090,56; 1334,847;  386,066; 1553,667; 0,09013
1091,10; 1321,937;  389,313; 1537,490; 0,09030
1091,64; 1298,057;  375,203; 1510,520; 0,08998
1092,18; 1296,033;  383,013; 1501,997; 0,08834
1092,72; 1230,530;  336,460; 1436,147; 0,08990
1093,26; 1264,737;  377,626; 1473,520; 0,09179
1093,80; 1239,967;  372,243; 1436,850; 0,08881
1094,34; 1211,857;  354,829; 1415,547; 0,09261
1094,88; 1223,420;  377,946; 1425,693; 0,09316
1095,42; 1236,127;  396,336; 1428,953; 0,08977
1095,96; 1188,330;  361,909; 1375,670; 0,08873
1096,50; 1175,057;  364,099; 1367,727; 0,09257
1097,04; 1167,563;  363,473; 1352,963; 0,09011
1097,58; 1159,557;  368,253; 1340,923; 0,08962
1098,12; 1143,553;  366,406; 1321,510; 0,08955
1098,66; 1154,450;  386,746; 1333,703; 0,09114
1099,20; 1130,977;  376,586; 1305,960; 0,09059
1099,73; 1111,603;  366,770; 1282,293; 0,08961
1100,27; 1118,520;  383,053; 1289,500; 0,09078

