
Integration time [ms]: 200,000
Averaging Nr. [scans]: 300
Smoothing Nr. [pixels]: 0
Data measured with spectrometer [name]: 2112124U1
Wave   ;Sample   ;Dark     ;Reference;Absorbance
[nm]   ;[counts] ;[counts] ;[counts] ;[A.U]

 176,03;  367,464;  360,085;  361,766;-0,64239
 176,64;  387,483;  383,568;  380,058; 0,00000
 177,24;  364,930;  360,240;  358,030; 0,00000
 177,84;  383,982;  376,289;  375,041; 0,00000
 178,44;  391,238;  382,372;  384,307;-0,66105
 179,05;  400,740;  395,102;  393,245; 0,00000
 179,65;  368,200;  363,385;  360,949; 0,00000
 180,25;  369,197;  358,266;  363,503;-0,31961
 180,85;  378,046;  370,726;  368,972; 0,00000
 181,45;  376,920;  370,023;  370,344; 0,00000
 182,06;  363,082;  356,396;  354,159; 0,00000
 182,66;  420,990;  411,715;  411,613; 0,00000
 183,26;  374,095;  366,866;  366,806; 0,00000
 183,86;  403,360;  396,660;  394,765; 0,00000
 184,46;  349,570;  344,907;  345,601; 0,00000
 185,07;  373,895;  365,721;  369,104;-0,38315
 185,67;  433,541;  385,432;  484,410; 0,31332
 186,27;  436,547;  392,948;  491,702; 0,35508
 186,87;  415,110;  374,503;  470,507; 0,37369
 187,47;  439,189;  390,680;  490,031; 0,31135
 188,07;  425,159;  382,374;  482,569; 0,36955
 188,68;  415,672;  364,576;  475,468; 0,33651
 189,28;  402,429;  359,107;  458,738; 0,36169
 189,88;  404,921;  374,931;  462,542; 0,46558
 190,48;  399,512;  377,407;  457,720; 0,56030
 191,08;  441,202;  408,082;  501,853; 0,45198
 191,68;  407,101;  366,924;  470,092; 0,40957
 192,29;  477,667;  421,445;  535,607; 0,30761
 192,89;  439,773;  388,983;  500,960; 0,34335
 193,49;  456,319;  400,717;  518,844; 0,32726
 194,09;  430,012;  379,127;  498,981; 0,37207
 194,69;  474,220;  418,284;  540,034; 0,33777
 195,29;  404,608;  354,652;  472,590; 0,37307
 195,90;  425,852;  373,513;  499,556; 0,38169
 196,50;  444,292;  388,568;  516,374; 0,36051
 197,10;  457,650;  404,543;  533,403; 0,38497
 197,70;  425,791;  372,677;  503,428; 0,39124
 198,30;  427,107;  377,380;  509,028; 0,42282
 198,90;  449,192;  393,536;  531,489; 0,39422
 199,50;  437,109;  384,133;  531,112; 0,44318
 200,11;  449,062;  391,639;  552,233; 0,44664
 200,71;  468,411;  409,695;  591,699; 0,49133
 201,31;  472,910;  406,580;  620,877; 0,50931
 201,91;  455,032;  384,883;  644,043; 0,56754
 202,51;  458,930;  384,918;  699,059; 0,62783
 203,11;  489,851;  404,412;  782,940; 0,64644
 203,71;  452,012;  359,274;  812,596; 0,68915
 204,31;  472,168;  370,261;  896,564; 0,71303
 204,91;  507,478;  388,517;  994,399; 0,70698
 205,52;  476,887;  360,153; 1028,559; 0,75784
 206,12;  512,057;  380,197; 1120,244; 0,74915
 206,72;  519,776;  382,223; 1194,932; 0,77146
 207,32;  506,888;  367,923; 1244,209; 0,79974
 207,92;  542,900;  391,240; 1337,763; 0,79526
 208,52;  559,319;  397,423; 1429,559; 0,80450
 209,12;  544,463;  377,125; 1505,057; 0,82869
 209,72;  574,991;  387,141; 1638,489; 0,82357
 210,32;  566,467;  364,232; 1737,570; 0,83192
 210,92;  594,766;  375,875; 1893,642; 0,84098
 211,53;  603,525;  373,543; 2040,929; 0,86034
 212,13;  610,997;  356,459; 2185,346; 0,85643
 212,73;  660,082;  390,919; 2373,938; 0,86731
 213,33;  623,643;  340,581; 2452,200; 0,87273
 213,93;  661,705;  365,789; 2589,309; 0,87587
 214,53;  779,177;  463,088; 2774,877; 0,86414
 215,13;  681,978;  374,299; 2706,247; 0,87962
 215,73;  645,950;  352,064; 2586,147; 0,88092
 216,33;  596,613;  330,625; 2324,925; 0,87493
 216,93;  575,782;  353,156; 1976,703; 0,86289
 217,53;  565,530;  372,175; 1751,992; 0,85347
 218,13;  593,301;  378,767; 2006,463; 0,88008
 218,73;  655,621;  351,796; 2816,591; 0,90916
 219,33;  775,926;  351,077; 3875,882; 0,91890
 219,93;  907,708;  385,258; 4878,317; 0,93450
 220,53;  984,806;  372,999; 5634,988; 0,93454
 221,14; 1027,729;  364,044; 6196,632; 0,94390
 221,74; 1081,156;  361,626; 6684,458; 0,94386
 222,34; 1099,871;  343,687; 7080,172; 0,94981
 222,94; 1152,983;  349,855; 7501,498; 0,94962
 223,54; 1165,818;  328,743; 7905,167; 0,95670
 224,14; 1323,107;  431,994; 8480,714; 0,95579
 224,74; 1289,813;  360,118; 8926,688; 0,96447
 225,34; 1325,992;  357,229; 9339,535; 0,96717
 225,94; 1343,254;  338,030; 9767,511; 0,97222
 226,54; 1404,772;  350,738;10257,946; 0,97310
 227,14; 1455,817;  365,936;10757,968; 0,97932
 227,74; 1481,173;  350,104;11086,055; 0,97735
 228,34; 1515,333;  351,450;11592,785; 0,98491
 228,94; 1521,966;  325,353;11914,619; 0,98610
 229,54; 1596,487;  360,508;12403,170; 0,98871
 230,14; 1620,873;  346,823;12903,004; 0,99367
 230,74; 1668,671;  344,565;13441,471; 0,99525
 231,34; 1727,684;  356,340;14021,042; 0,99845
 231,94; 1778,138;  352,503;14666,870; 1,00176
 232,54; 1796,548;  334,666;15158,793; 1,00606
 233,14; 1879,732;  373,015;15710,777; 1,00773
 233,74; 1870,292;  332,580;16139,117; 1,01196
 234,34; 1890,968;  328,087;16457,922; 1,01370
 234,94; 1942,888;  350,162;16796,764; 1,01394
 235,54; 1906,510;  323,556;16830,246; 1,01819
 236,14; 1944,598;  360,183;16906,576; 1,01883
 236,74; 1907,535;  345,190;16768,246; 1,02168
 237,34; 1892,753;  356,368;16610,350; 1,02446
 237,94; 1831,544;  324,546;16318,009; 1,02583
 238,54; 1798,859;  321,561;16034,139; 1,02678
 239,14; 1777,810;  335,450;15675,290; 1,02675
 239,74; 1702,926;  303,739;15249,012; 1,02863
 240,34; 1676,610;  323,579;14915,701; 1,03281
 240,93; 1765,139;  436,979;14666,622; 1,02994
 241,53; 1647,637;  362,617;14235,317; 1,03325
 242,13; 1660,636;  406,027;13863,337; 1,03045
 242,73; 1536,576;  330,655;13429,511; 1,03591
 243,33; 1493,577;  332,617;13016,658; 1,03844
 243,93; 1518,069;  389,052;12693,787; 1,03737
 244,53; 1429,286;  338,653;12294,700; 1,03991
 245,13; 1418,938;  365,120;11965,734; 1,04172
 245,73; 1396,733;  369,150;11664,556; 1,04109
 246,33; 1349,634;  352,846;11441,659; 1,04628
 246,93; 1320,895;  336,518;11258,408; 1,04514
 247,53; 1318,823;  337,779;11272,542; 1,04712
 248,13; 1302,721;  326,586;11280,047; 1,05004
 248,73; 1332,509;  341,941;11505,646; 1,05192
 249,33; 1361,653;  347,648;11886,436; 1,05612
 249,93; 1404,575;  355,854;12402,773; 1,06022
 250,52; 1408,522;  320,376;12917,021; 1,06357
 251,12; 1502,293;  354,657;13668,991; 1,06451
 251,72; 1541,723;  332,946;14442,048; 1,06715
 252,32; 1585,472;  323,142;15252,449; 1,07287
 252,92; 1655,793;  319,625;16257,335; 1,07656
 253,52; 1761,912;  344,931;17276,217; 1,07733
 254,12; 1834,871;  346,708;18245,842; 1,08018
 254,72; 1909,649;  341,595;19301,486; 1,08247
 255,32; 2000,793;  353,358;20452,605; 1,08637
 255,92; 2055,502;  336,540;21473,709; 1,08978
 256,52; 2126,819;  341,163;22372,912; 1,09125
 257,11; 2181,653;  332,922;23223,660; 1,09279
 257,71; 2279,111;  363,648;24227,588; 1,09547
 258,31; 2333,935;  379,392;24809,926; 1,09689
 258,91; 2332,586;  337,271;25322,371; 1,09767
 259,51; 2458,407;  416,632;26053,363; 1,09885
 260,11; 2361,515;  315,246;26167,789; 1,10154
 260,71; 2436,447;  368,256;26618,178; 1,10354
 261,31; 2386,797;  328,066;26545,822; 1,10500
 261,90; 2401,095;  328,584;26815,539; 1,10654
 262,50; 2438,325;  355,006;27070,449; 1,10801
 263,10; 2429,723;  344,284;27264,180; 1,11088
 263,70; 2433,552;  328,851;27603,250; 1,11256
 264,30; 2452,691;  343,649;27807,199; 1,11467
 264,90; 2451,891;  329,243;28012,723; 1,11534
 265,50; 2464,031;  344,093;28062,455; 1,11644
 266,09; 2481,780;  362,293;28060,172; 1,11622
 266,69; 2390,983;  320,229;27609,492; 1,11986
 267,29; 2399,922;  348,330;27436,844; 1,12069
 267,89; 2350,104;  327,077;27069,955; 1,12121
 268,49; 2323,157;  332,949;26784,717; 1,12356
 269,09; 2320,731;  349,774;26583,254; 1,12418
 269,68; 2301,927;  350,298;26420,529; 1,12575
 270,28; 2256,607;  330,266;26128,607; 1,12686
 270,88; 2267,193;  344,483;26201,021; 1,12866
 271,48; 2243,572;  336,837;26052,754; 1,12991
 272,08; 2224,003;  324,767;26156,395; 1,13357
 272,68; 2268,013;  347,896;26542,258; 1,13488
 273,27; 2296,539;  337,847;27155,920; 1,13646
 273,87; 2345,384;  352,211;27713,570; 1,13759
 274,47; 2419,364;  368,810;28546,043; 1,13803
 275,07; 2427,863;  324,017;29346,957; 1,13973
 275,67; 2478,148;  342,096;30026,178; 1,14291
 276,26; 2531,699;  354,399;30667,236; 1,14371
 276,86; 2559,673;  335,265;31333,146; 1,14412
 277,46; 2593,456;  338,462;31950,135; 1,14670
 278,06; 2603,016;  320,875;32421,756; 1,14817
 278,66; 2658,735;  346,072;33043,078; 1,15040
 279,25; 2647,833;  319,012;33308,609; 1,15124
 279,85; 2713,567;  358,168;33672,867; 1,15057
 280,45; 2725,713;  348,762;34131,902; 1,15268
 281,05; 2713,505;  335,839;34245,816; 1,15418
 281,65; 2759,287;  375,927;34542,508; 1,15641
 282,24; 2769,563;  380,260;34644,141; 1,15657
 282,84; 2703,763;  328,879;34561,949; 1,15880
 283,44; 2727,642;  343,119;34750,844; 1,15925
 284,04; 2725,345;  340,057;34782,652; 1,15956
 284,63; 2720,864;  363,828;34727,520; 1,16373
 285,23; 2718,945;  328,020;34873,770; 1,15983
 285,83; 2712,898;  343,171;34850,891; 1,16322
 286,43; 2709,166;  343,839;34739,059; 1,16261
 287,02; 2745,738;  401,625;34383,414; 1,16127
 287,62; 2627,697;  329,739;33740,402; 1,16254
 288,22; 2599,285;  351,950;33117,680; 1,16375
 288,82; 2536,004;  346,985;32371,410; 1,16523
 289,41; 2489,231;  341,009;31804,914; 1,16573
 290,01; 2495,446;  364,071;31650,410; 1,16669
 290,61; 2525,324;  377,785;32036,463; 1,16855
 291,21; 2504,227;  332,162;32409,295; 1,16932
 291,80; 2531,659;  332,678;32792,180; 1,16912
 292,40; 2554,049;  345,497;32995,141; 1,16977
 293,00; 2569,403;  357,397;32992,750; 1,16890
 293,60; 2530,812;  335,086;32815,305; 1,17004
 294,19; 2521,844;  325,297;32738,178; 1,16898
 294,79; 2506,404;  331,451;32544,539; 1,17058
 295,39; 2518,831;  368,093;32224,730; 1,17061
 295,98; 2451,891;  327,771;31756,078; 1,17014
 296,58; 2405,631;  332,681;31028,328; 1,17049
 297,18; 2333,459;  315,494;30103,504; 1,16913
 297,77; 2322,145;  355,326;29573,545; 1,17189
 298,37; 2325,922;  345,247;29785,182; 1,17212
 298,97; 2391,096;  347,663;30829,982; 1,17369
 299,57; 2437,034;  317,408;31970,611; 1,17416
 300,16; 2513,310;  338,623;32820,301; 1,17424
 300,76; 2589,268;  358,279;33690,355; 1,17436
 301,36; 2624,422;  361,151;34230,387; 1,17507
 301,95; 2621,156;  316,304;34798,539; 1,17495
 302,55; 2684,361;  355,675;35232,215; 1,17542
 303,15; 2676,678;  325,198;35579,992; 1,17588
 303,74; 2723,350;  343,892;35958,609; 1,17515
 304,34; 2743,497;  342,763;36314,242; 1,17561
 304,94; 2759,580;  332,414;36606,313; 1,17449
 305,53; 2806,365;  362,732;36751,719; 1,17293
 306,13; 2780,325;  326,919;37116,277; 1,17595
 306,73; 2842,474;  367,097;37418,402; 1,17516
 307,32; 2832,884;  350,834;37456,480; 1,17463
 307,92; 2797,821;  337,315;37351,227; 1,17734
 308,52; 2825,424;  348,734;37361,039; 1,17447
 309,11; 2797,751;  342,473;37038,258; 1,17452
 309,71; 2825,831;  380,133;36921,305; 1,17438
 310,31; 2733,426;  293,010;36688,867; 1,17359
 310,90; 2752,682;  326,332;36533,406; 1,17384
 311,50; 2764,445;  335,359;36653,270; 1,17468
 312,10; 2773,502;  346,057;36714,820; 1,17558
 312,69; 2757,341;  318,119;36715,879; 1,17382
 313,29; 2785,323;  348,324;36717,684; 1,17388
 313,88; 2734,865;  312,732;36372,906; 1,17283
 314,48; 2741,457;  350,385;36023,531; 1,17375
 315,08; 2641,069;  297,472;35179,883; 1,17272
 315,67; 2658,389;  338,998;34849,176; 1,17257
 316,27; 2575,568;  303,228;34085,301; 1,17221
 316,87; 2570,135;  350,102;33402,055; 1,17284
 317,46; 2468,144;  297,755;32568,320; 1,17227
 318,06; 2472,524;  337,915;32186,400; 1,17377
 318,65; 2452,592;  323,899;31861,992; 1,17072
 319,25; 2438,695;  336,088;31660,230; 1,17312
 319,85; 2414,104;  321,136;31307,520; 1,17041
 320,44; 2408,382;  347,466;30953,359; 1,17174
 321,04; 2382,216;  326,130;30715,531; 1,16968
 321,63; 2375,967;  331,955;30592,676; 1,17040
 322,23; 2339,672;  292,786;30467,719; 1,16855
 322,83; 2369,609;  327,474;30515,471; 1,16975
 323,42; 2356,456;  332,559;30154,465; 1,16835
 324,02; 2312,508;  310,722;29795,477; 1,16818
 324,61; 2307,936;  314,178;29573,896; 1,16660
 325,21; 2321,365;  349,034;29261,375; 1,16610
 325,80; 2292,338;  329,734;29058,357; 1,16548
 326,40; 2416,852;  463,153;28794,930; 1,16142
 327,00; 2231,119;  315,383;28220,221; 1,16334
 327,59; 2216,084;  317,191;27992,975; 1,16360
 328,19; 2219,588;  341,769;27739,691; 1,16406
 328,78; 2192,357;  329,765;27395,291; 1,16230
 329,38; 2175,930;  331,314;27147,514; 1,16249
 329,97; 2163,455;  324,245;26933,363; 1,16040
 330,57; 2144,354;  329,113;26638,295; 1,16117
 331,16; 2121,759;  320,243;26262,889; 1,15838
 331,76; 2105,469;  321,632;25970,570; 1,15771
 332,36; 2113,763;  341,464;25631,371; 1,15441
 332,95; 2075,853;  325,077;25301,270; 1,15430
 333,55; 2100,137;  355,424;25195,656; 1,15343
 334,14; 2076,185;  314,962;25133,727; 1,14897
 334,74; 2106,272;  323,212;25246,543; 1,14544
 335,33; 2118,046;  310,558;25461,807; 1,14348
 335,93; 2158,039;  321,198;25871,047; 1,14332
 336,52; 2173,219;  311,280;26125,580; 1,14189
 337,12; 2244,844;  358,353;26425,563; 1,14044
 337,71; 2247,308;  331,151;26636,682; 1,13762
 338,31; 2292,799;  349,798;26886,191; 1,13537
 338,90; 2313,839;  359,218;27016,051; 1,13475
 339,50; 2323,793;  332,774;27194,943; 1,13007
 340,09; 2325,460;  330,714;27193,990; 1,12927
 340,69; 2326,234;  314,062;27191,070; 1,12572
 341,28; 2353,333;  334,554;27114,424; 1,12272
 341,88; 2317,318;  327,602;26736,094; 1,12295
 342,47; 2345,655;  337,203;26654,141; 1,11737
 343,07; 2372,527;  329,782;27111,371; 1,11762
 343,66; 2403,328;  319,164;27382,406; 1,11345
 344,26; 2474,351;  315,472;28215,020; 1,11137
 344,85; 2531,198;  321,748;28705,811; 1,10879
 345,45; 2586,823;  319,328;29186,760; 1,10486
 346,04; 2681,520;  363,798;29553,707; 1,10017
 346,64; 2671,477;  329,933;29681,266; 1,09813
 347,23; 2687,261;  312,849;29850,771; 1,09482
 347,83; 2767,714;  340,044;30171,982; 1,08949
 348,42; 2842,648;  379,754;30248,139; 1,08377
 349,01; 2792,305;  331,950;30043,031; 1,08192
 349,61; 2769,584;  289,497;29912,385; 1,07716
 350,20; 2851,136;  338,670;30007,291; 1,07220
 350,80; 2859,160;  315,180;30000,828; 1,06703
 351,39; 2877,080;  323,399;29855,340; 1,06313
 351,99; 2864,385;  307,432;29664,795; 1,05999
 352,58; 2901,867;  322,275;29502,271; 1,05353
 353,18; 2913,201;  350,621;29067,752; 1,04946
 353,77; 2872,719;  319,401;28610,082; 1,04454
 354,36; 2927,760;  363,933;28394,861; 1,03875
 354,96; 2874,968;  323,516;28010,125; 1,03548
 355,55; 2883,521;  312,437;27860,438; 1,02997
 356,15; 2917,393;  330,544;27708,092; 1,02462
 356,74; 2930,503;  314,084;27694,348; 1,01973
 357,34; 2976,079;  325,215;27665,398; 1,01341
 357,93; 3028,325;  330,943;27768,234; 1,00740
 358,52; 3036,999;  313,833;27667,830; 1,00195
 359,12; 3083,766;  329,189;27592,291; 0,99552
 359,71; 3093,359;  324,720;27354,119; 0,98957
 360,31; 3107,592;  319,603;27162,744; 0,98354
 360,90; 3092,785;  308,969;26681,320; 0,97651
 361,49; 3137,082;  327,363;26486,975; 0,96897
 362,09; 3132,340;  334,750;26122,840; 0,96464
 362,68; 3119,792;  327,317;25547,441; 0,95576
 363,28; 3056,635;  314,169;24740,945; 0,94972
 363,87; 2996,231;  303,751;23894,488; 0,94259
 364,46; 2993,412;  325,776;23378,375; 0,93659
 365,06; 3016,430;  347,966;23117,025; 0,93108
 365,65; 3027,563;  331,132;23129,883; 0,92712
 366,24; 3092,176;  317,893;23358,945; 0,91935
 366,84; 3163,067;  351,946;23333,225; 0,91249
 367,43; 3101,805;  306,425;22885,377; 0,90726
 368,03; 3126,676;  318,536;22545,277; 0,89846
 368,62; 3076,818;  305,168;21980,707; 0,89323
 369,21; 3103,197;  326,363;21691,662; 0,88616
 369,81; 3074,007;  320,450;21166,752; 0,87913
 370,40; 3051,931;  333,881;20593,443; 0,87237
 370,99; 3013,624;  303,137;20252,689; 0,86689
 371,59; 3062,371;  352,136;19950,072; 0,85920
 372,18; 2987,940;  288,455;19588,654; 0,85428
 372,77; 3021,832;  324,144;19257,648; 0,84624
 373,37; 2990,424;  311,511;18901,502; 0,84132
 373,96; 3031,781;  338,941;18713,932; 0,83402
 374,55; 3005,388;  304,986;18537,557; 0,82942
 375,15; 3095,218;  333,459;18660,934; 0,82192
 375,74; 3110,567;  303,049;18655,016; 0,81536
 376,33; 3153,989;  302,584;18703,863; 0,80979
 376,93; 3255,230;  329,167;18992,068; 0,80470
 377,52; 3367,679;  320,726;19512,434; 0,79925
 378,11; 3432,311;  293,780;19794,580; 0,79333
 378,71; 3597,016;  313,230;20435,998; 0,78731
 379,30; 3730,268;  313,851;20944,291; 0,78094
 379,89; 3764,153;  317,272;20801,727; 0,77400
 380,49; 3811,349;  345,041;20700,744; 0,76882
 381,08; 3816,587;  310,804;20625,727; 0,76303
 381,67; 3876,284;  345,783;20551,613; 0,75764
 382,26; 3942,587;  319,894;20787,807; 0,75204
 382,86; 4026,399;  312,601;20923,523; 0,74428
 383,45; 4009,188;  307,675;20545,236; 0,73778
 384,04; 4103,141;  406,782;20370,605; 0,73247
 384,64; 4055,431;  328,606;20173,217; 0,72630
 385,23; 4062,282;  316,863;20077,385; 0,72230
 385,82; 4168,775;  328,841;20318,053; 0,71647
 386,41; 4351,986;  326,346;20979,469; 0,71015
 387,01; 4641,738;  356,374;22083,871; 0,70502
 387,60; 4832,075;  334,946;22828,563; 0,69912
 388,19; 5051,447;  355,375;23536,895; 0,69341
 388,78; 5151,258;  339,551;23658,555; 0,68541
 389,38; 5062,438;  322,049;23018,770; 0,68015
 389,97; 5088,255;  305,389;22962,205; 0,67551
 390,56; 5274,365;  336,349;23379,697; 0,66899
 391,15; 5400,064;  305,641;23809,744; 0,66405
 391,75; 5633,419;  339,052;24484,654; 0,65902
 392,34; 5971,434;  332,839;25726,035; 0,65355
 392,93; 6210,503;  355,482;26294,539; 0,64643
 393,52; 6097,890;  309,316;25522,092; 0,63905
 394,12; 5937,302;  334,016;24551,967; 0,63569
 394,71; 5950,715;  288,556;24456,102; 0,63025
 395,30; 5997,209;  289,076;24281,830; 0,62359
 395,89; 6104,715;  349,207;24286,957; 0,61900
 396,49; 6265,307;  332,882;24648,262; 0,61265
 397,08; 6460,491;  317,254;25247,852; 0,60834
 397,67; 6850,832;  335,400;26447,506; 0,60290
 398,26; 7247,053;  335,033;27655,400; 0,59688
 398,85; 7294,745;  318,964;27441,340; 0,58973
 399,45; 7071,645;  314,448;26241,176; 0,58398
 400,04; 7007,710;  358,283;25589,816; 0,57916
 400,63; 6937,322;  307,540;25218,330; 0,57489
 401,22; 7062,357;  320,670;25276,740; 0,56841
 401,81; 6956,692;  309,772;24606,875; 0,56293
 402,41; 7063,907;  417,593;24442,350; 0,55808
 403,00; 7018,981;  318,910;24249,396; 0,55287
 403,59; 7111,083;  350,205;24188,498; 0,54727
 404,18; 7114,186;  314,737;24004,834; 0,54209
 404,77; 7222,568;  320,921;24121,902; 0,53764
 405,36; 7311,816;  300,147;24137,236; 0,53143
 405,96; 7148,857;  310,058;23220,281; 0,52505
 406,55; 6860,420;  302,865;22050,420; 0,52067
 407,14; 6802,046;  308,178;21666,172; 0,51706
 407,73; 6917,059;  340,507;21753,471; 0,51268
 408,32; 7166,773;  310,319;22386,865; 0,50783
 408,91; 7354,917;  326,255;22630,313; 0,50151
 409,51; 7313,695;  328,485;22229,078; 0,49628
 410,10; 7170,710;  282,990;21608,207; 0,49082
 410,69; 6998,156;  303,361;20784,264; 0,48561
 411,28; 6889,659;  307,734;20263,029; 0,48171
 411,87; 6867,878;  321,629;19937,164; 0,47661
 412,46; 6922,694;  314,398;19937,150; 0,47267
 413,05; 6944,691;  342,649;19703,902; 0,46726
 413,64; 6780,975;  295,160;19076,104; 0,46175
 414,24; 6581,649;  307,466;18259,146; 0,45655
 414,83; 6532,381;  343,144;17909,514; 0,45304
 415,42; 6491,561;  333,481;17641,084; 0,44879
 416,01; 6608,776;  314,763;17855,305; 0,44512
 416,60; 6760,657;  356,694;17976,219; 0,43955
 417,19; 6793,607;  314,747;17938,844; 0,43461
 417,78; 6912,640;  357,811;18033,521; 0,43082
 418,37; 6979,792;  329,286;18057,180; 0,42580
 418,96; 7144,791;  332,481;18329,111; 0,42190
 419,56; 7275,298;  331,036;18497,662; 0,41765
 420,15; 7441,001;  310,794;18813,955; 0,41414
 420,74; 7787,293;  320,123;19542,234; 0,41065
 421,33; 8254,541;  306,377;20561,982; 0,40628
 421,92; 8437,257;  340,829;20671,750; 0,39986
 422,51; 8030,342;  316,919;19414,900; 0,39374
 423,10; 7748,009;  330,832;18588,023; 0,39120
 423,69; 7512,321;  325,424;17824,646; 0,38648
 424,28; 7336,962;  309,095;17336,279; 0,38432
 424,87; 7390,635;  326,887;17276,467; 0,38012
 425,46; 7273,766;  351,671;16758,803; 0,37480
 426,05; 7009,876;  316,481;16081,728; 0,37205
 426,64; 6990,905;  305,841;15978,011; 0,37002
 427,24; 7441,259;  344,035;16804,531; 0,36535
 427,83; 7421,098;  274,800;16670,225; 0,36064
 428,42; 7499,783;  342,896;16661,053; 0,35795
 429,01; 7798,557;  285,055;17347,168; 0,35619
 429,60; 8674,723;  339,989;19104,686; 0,35245
 430,19; 9046,007;  332,868;19634,428; 0,34542
 430,78; 8668,422;  342,418;18565,756; 0,34019
 431,37; 7979,945;  372,486;16839,295; 0,33537
 431,96; 7376,301;  339,941;15553,188; 0,33487
 432,55; 7214,631;  321,509;15163,475; 0,33308
 433,14; 7603,917;  309,542;16044,614; 0,33388
 433,73; 8488,622;  343,113;17603,203; 0,32612
 434,32; 8054,100;  347,339;16363,508; 0,31769
 434,91; 7544,038;  291,776;15422,009; 0,31937
 435,50; 7667,118;  347,692;15482,210; 0,31549
 436,09; 7766,691;  332,149;15637,316; 0,31358
 436,68; 7884,688;  334,301;15719,837; 0,30914
 437,27; 7608,435;  327,328;15035,827; 0,30537
 437,86; 7631,784;  315,031;15078,494; 0,30487
 438,45; 7910,439;  331,853;15473,938; 0,30060
 439,04; 7911,493;  325,057;15358,031; 0,29701
 439,63; 7827,112;  318,390;15078,922; 0,29354
 440,22; 7889,297;  348,409;15141,058; 0,29262
 440,81; 8675,187;  337,444;16730,488; 0,29361
 441,40; 9655,374;  339,683;18374,789; 0,28690
 441,99; 9366,521;  321,980;17582,588; 0,28067
 442,58; 9127,599;  323,034;17141,949; 0,28109
 443,17; 9463,745;  311,104;17734,111; 0,27958
 443,76; 9662,638;  331,320;17910,510; 0,27506
 444,35; 9471,253;  328,073;17435,666; 0,27209
 444,94; 9493,704;  355,709;17382,781; 0,27029
 445,53; 9305,464;  329,913;16956,162; 0,26773
 446,12; 9436,316;  336,521;17131,809; 0,26616
 446,71; 9549,294;  352,864;17180,354; 0,26240
 447,29; 9255,555;  343,182;16581,564; 0,26055
 447,88; 9084,507;  332,495;16187,663; 0,25806
 448,47; 9164,606;  338,368;16266,140; 0,25638
 449,06; 9356,232;  314,734;16558,213; 0,25444
 449,65; 9524,845;  334,777;16710,730; 0,25089
 450,24; 9544,564;  342,382;16661,139; 0,24880
 450,83; 9394,086;  338,601;16286,759; 0,24580
 451,42; 9427,461;  328,151;16318,315; 0,24484
 452,01; 9532,344;  326,842;16439,650; 0,24312
 452,60; 9440,909;  346,208;16128,940; 0,23939
 453,19; 9143,632;  332,449;15558,139; 0,23754
 453,78; 9005,115;  310,454;15284,736; 0,23609
 454,37; 9127,832;  360,490;15422,726; 0,23502
 454,95; 9520,042;  348,093;16048,419; 0,23345
 455,54; 9657,302;  318,593;16136,688; 0,22887
 456,13; 9317,929;  346,680;15487,373; 0,22729
 456,72; 9391,880;  332,567;15641,142; 0,22784
 457,31; 9889,775;  345,328;16400,982; 0,22588
 457,90;10232,081;  349,150;16855,381; 0,22276
 458,49;10395,922;  336,551;17033,602; 0,22007
 459,08;10421,316;  328,696;17043,375; 0,21909
 459,67;10613,972;  364,575;17237,633; 0,21650
 460,25;10402,269;  348,060;16781,980; 0,21339
 460,84;10441,513;  341,515;16861,957; 0,21370
 461,43;10046,179;  328,759;16023,012; 0,20819
 462,02; 9274,922;  318,689;14794,191; 0,20851
 462,61; 9229,638;  308,528;14785,124; 0,21025
 463,20; 9884,108;  345,430;15756,023; 0,20833
 463,79;10426,286;  323,114;16559,641; 0,20604
 464,37;10741,940;  351,902;17023,367; 0,20536
 464,96;11171,187;  327,519;17646,559; 0,20335
 465,55;11584,552;  309,586;18158,438; 0,19950
 466,14;10986,356;  330,745;17039,525; 0,19537
 466,73; 9722,890;  325,655;15032,316; 0,19451
 467,32; 9353,355;  337,854;14508,477; 0,19640
 467,90; 9340,012;  323,250;14414,938; 0,19391
 468,49; 9081,479;  321,325;13916,073; 0,19086
 469,08; 8589,561;  321,166;13136,986; 0,19033
 469,67; 8306,387;  328,626;12695,922; 0,19039
 470,26; 8232,234;  313,395;12559,830; 0,18935
 470,85; 8200,299;  299,552;12480,969; 0,18803
 471,43; 8291,927;  321,005;12602,268; 0,18773
 472,02; 8497,759;  316,632;12906,532; 0,18721
 472,61; 8860,848;  301,118;13437,555; 0,18602
 473,20; 9318,368;  358,280;14023,160; 0,18329
 473,79; 9244,519;  346,202;13830,846; 0,18053
 474,37; 9186,702;  338,464;13780,721; 0,18162
 474,96; 9722,465;  330,287;14583,107; 0,18113
 475,55; 9700,926;  314,761;14403,431; 0,17638
 476,14; 9223,373;  311,537;13683,688; 0,17623
 476,72; 9008,215;  331,043;13303,588; 0,17465
 477,31; 8761,014;  316,057;12985,107; 0,17615
 477,90; 9285,479;  318,904;13738,083; 0,17510
 478,49; 9244,035;  318,129;13549,364; 0,17095
 479,08; 9024,522;  332,413;13243,997; 0,17185
 479,66; 9431,836;  310,728;13875,031; 0,17235
 480,25; 9729,963;  311,043;14219,396; 0,16927
 480,84; 9439,198;  308,632;13730,607; 0,16732
 481,43; 9700,274;  347,375;14142,333; 0,16877
 482,01; 9631,415;  292,309;13942,782; 0,16484
 482,60; 9078,909;  346,524;13098,231; 0,16444
 483,19; 9006,329;  310,527;13048,366; 0,16579
 483,78; 9434,044;  322,650;13672,611; 0,16590
 484,36;10240,545;  311,520;14891,580; 0,16685
 484,95;12255,677;  344,823;18579,404; 0,18495
 485,54;27457,861;  328,117;40502,590; 0,17050
 486,12;29350,449;  323,706;40410,520; 0,14020
 486,71;13865,313;  310,591;18751,363; 0,13369
 487,30;10515,967;  335,957;14819,509; 0,15313
 487,89; 8918,314;  325,748;12514,656; 0,15184
 488,47; 8199,863;  295,591;11603,951; 0,15554
 489,06; 8209,790;  316,463;11575,978; 0,15426
 489,65; 8027,639;  355,341;11266,909; 0,15296
 490,23; 7788,865;  361,139;10942,286; 0,15368
 490,82; 7774,205;  303,619;10937,221; 0,15333
 491,41; 7760,631;  326,297;10870,940; 0,15179
 492,00; 7607,636;  345,532;10651,551; 0,15203
 492,58; 7621,729;  324,445;10621,289; 0,14954
 493,17; 7665,847;  333,966;10700,254; 0,15041
 493,76; 7717,143;  398,260;10736,825; 0,15002
 494,34; 7681,737;  350,544;10645,819; 0,14746
 494,93; 7369,678;  343,493;10161,253; 0,14529
 495,52; 7279,791;  328,559;10177,805; 0,15134
 496,10; 8176,881;  317,407;11400,070; 0,14925
 496,69; 8017,755;  352,159;10928,375; 0,13978
 497,28; 6988,387;  393,059; 9517,639; 0,14098
 497,86; 6757,915;  324,829; 9317,378; 0,14546
 498,45; 7029,043;  312,333; 9695,438; 0,14519
 499,04; 7351,268;  350,916;10122,075; 0,14483
 499,62; 7486,620;  376,735;10220,077; 0,14128
 500,21; 7086,916;  346,371; 9636,579; 0,13933
 500,80; 7046,622;  318,063; 9697,120; 0,14424
 501,38; 7394,400;  328,892;10114,727; 0,14145
 501,97; 7382,133;  333,129;10052,751; 0,13952
 502,55; 7312,856;  323,333; 9987,355; 0,14071
 503,14; 7326,937;  322,978; 9953,820; 0,13832
 503,73; 7084,440;  313,898; 9580,801; 0,13631
 504,31; 6732,242;  311,573; 9120,442; 0,13734
 504,90; 6841,158;  349,119; 9251,674; 0,13713
 505,49; 6782,598;  320,179; 9180,311; 0,13705
 506,07; 6966,579;  335,290; 9422,761; 0,13685
 506,66; 6803,309;  302,735; 9120,313; 0,13240
 507,24; 6324,515;  313,190; 8517,741; 0,13508
 507,83; 6507,585;  303,041; 8787,331; 0,13591
 508,42; 6544,479;  289,609; 8758,297; 0,13160
 509,00; 6289,804;  338,337; 8399,396; 0,13177
 509,59; 6174,022;  336,317; 8273,204; 0,13341
 510,17; 6224,022;  327,608; 8317,195; 0,13194
 510,76; 6125,805;  344,803; 8158,958; 0,13088
 511,34; 5990,429;  312,100; 7965,839; 0,12965
 511,93; 5739,534;  325,068; 7615,515; 0,12920
 512,52; 5664,794;  324,009; 7525,500; 0,12982
 513,10; 5672,369;  316,527; 7511,817; 0,12822
 513,69; 5556,621;  334,197; 7359,125; 0,12877
 514,27; 5443,339;  319,883; 7190,599; 0,12744
 514,86; 5214,017;  350,522; 6843,645; 0,12551
 515,44; 5129,425;  304,801; 6795,849; 0,12885
 516,03; 5335,271;  331,216; 7055,729; 0,12834
 516,61; 5364,875;  351,743; 7047,037; 0,12566
 517,20; 5138,584;  305,505; 6757,669; 0,12548
 517,79; 4997,157;  351,295; 6549,768; 0,12522
 518,37; 5062,871;  328,449; 6661,492; 0,12635
 518,96; 5407,992;  437,029; 7058,706; 0,12453
 519,54; 5174,796;  296,059; 6743,821; 0,12110
 520,13; 4862,950;  345,298; 6327,904; 0,12198
 520,71; 4841,242;  307,564; 6347,159; 0,12456
 521,30; 5030,658;  323,702; 6553,108; 0,12171
 521,88; 4896,023;  313,611; 6381,205; 0,12192
 522,47; 5044,534;  339,170; 6578,267; 0,12253
 523,05; 5166,281;  331,082; 6718,754; 0,12093
 523,64; 5371,162;  332,276; 7008,169; 0,12217
 524,22; 5487,961;  328,083; 7126,842; 0,11979
 524,81; 5460,066;  324,383; 7085,186; 0,11940
 525,39; 5573,859;  333,523; 7270,596; 0,12182
 525,98; 5784,981;  319,088; 7529,497; 0,12030
 526,56; 6003,699;  331,801; 7810,998; 0,12013
 527,15; 6185,822;  326,330; 8029,121; 0,11879
 527,73; 6272,949;  358,773; 8150,000; 0,11971
 528,32; 6662,750;  327,102; 8700,708; 0,12112
 528,90; 7103,426;  319,242; 9211,103; 0,11750
 529,49; 7036,552;  326,499; 9084,329; 0,11567
 530,07; 6974,879;  319,326; 9020,797; 0,11641
 530,66; 7082,979;  362,735; 9147,239; 0,11633
 531,24; 7128,121;  355,365; 9209,779; 0,11639
 531,82; 7178,601;  333,281; 9279,736; 0,11626
 532,41; 7259,416;  335,565; 9393,586; 0,11669
 532,99; 7716,795;  342,162; 9986,318; 0,11652
 533,58; 7923,488;  372,468;10193,546; 0,11415
 534,16; 7757,000;  332,112; 9991,844; 0,11428
 534,75; 7829,035;  369,301;10039,107; 0,11269
 535,33; 7634,582;  325,694; 9797,634; 0,11259
 535,92; 7366,192;  313,586; 9428,243; 0,11139
 536,50; 7130,017;  342,084; 9137,723; 0,11253
 537,08; 7196,978;  307,677; 9259,770; 0,11375
 537,67; 7689,067;  359,655; 9875,081; 0,11336
 538,25; 7948,154;  343,448;10185,392; 0,11200
 538,84; 8102,646;  366,201;10378,470; 0,11199
 539,42; 8146,450;  338,703;10406,311; 0,11040
 540,00; 8048,645;  346,201;10308,475; 0,11173
 540,59; 8310,567;  357,330;10646,413; 0,11183
 541,17; 8562,866;  357,702;10925,381; 0,10989
 541,76; 8755,961;  406,348;11157,524; 0,10979
 542,34; 8756,834;  349,575;11150,021; 0,10879
 542,92; 8824,539;  323,025;11231,487; 0,10827
 543,51; 9011,207;  340,954;11483,552; 0,10895
 544,09; 9260,257;  342,869;11768,570; 0,10765
 544,68; 9343,814;  338,745;11846,358; 0,10650
 545,26; 9106,391;  322,037;11528,122; 0,10574
 545,84; 8942,201;  345,898;11355,218; 0,10745
 546,43; 9150,064;  352,237;11633,034; 0,10796
 547,01; 9668,394;  341,794;12328,290; 0,10897
 547,59;10451,687;  333,287;13295,950; 0,10758
 548,18;10665,762;  319,020;13477,768; 0,10441
 548,76;10277,614;  343,821;12956,009; 0,10368
 549,34;10256,285;  347,592;12959,278; 0,10476
 549,93;10583,487;  331,908;13396,520; 0,10531
 550,51;10813,133;  341,259;13655,715; 0,10430
 551,09;11100,016;  332,512;14064,419; 0,10562
 551,68;12066,520;  325,956;15313,372; 0,10604
 552,26;12731,407;  319,078;16054,329; 0,10302
 552,84;12799,988;  330,176;16126,793; 0,10270
 553,43;13171,844;  330,518;16609,824; 0,10303
 554,01;13410,078;  327,864;16846,107; 0,10128
 554,59;13730,160;  334,176;17304,756; 0,10272
 555,18;14436,869;  315,864;18210,252; 0,10285
 555,76;14914,563;  296,268;18770,006; 0,10166
 556,34;14962,094;  334,064;18803,180; 0,10126
 556,93;15143,761;  332,732;19037,109; 0,10136
 557,51;15472,968;  379,596;19407,863; 0,10061
 558,09;15661,976;  325,126;19653,461; 0,10046
 558,68;15601,002;  310,223;19578,646; 0,10042
 559,26;15980,136;  305,494;20079,125; 0,10089
 559,84;16674,209;  338,257;20928,541; 0,10052
 560,42;17289,125;  323,273;21632,443; 0,09899
 561,01;17457,621;  329,274;21801,416; 0,09816
 561,59;17413,416;  343,752;21761,336; 0,09855
 562,17;17460,727;  320,015;21822,777; 0,09847
 562,75;17774,420;  303,459;22212,414; 0,09830
 563,34;18320,402;  350,306;22840,463; 0,09744
 563,92;18713,273;  334,385;23309,400; 0,09694
 564,50;19113,555;  347,287;23816,904; 0,09713
 565,08;19277,785;  332,575;23990,188; 0,09647
 565,67;19610,416;  315,524;24407,879; 0,09644
 566,25;20114,141;  324,361;25043,109; 0,09659
 566,83;20885,166;  310,043;26002,693; 0,09647
 567,41;21631,449;  307,694;26864,346; 0,09531
 568,00;22215,389;  318,602;27578,098; 0,09514
 568,58;23125,285;  330,325;28691,645; 0,09489
 569,16;24369,041;  308,204;30254,402; 0,09503
 569,74;25647,592;  323,078;31694,836; 0,09300
 570,33;26104,096;  307,979;32238,350; 0,09265
 570,91;26975,283;  335,354;33287,762; 0,09235
 571,49;27815,990;  365,136;34196,570; 0,09076
 572,07;27237,158;  409,648;33379,770; 0,08954
 572,65;26861,145;  325,620;33166,969; 0,09259
 573,24;28691,697;  314,094;35402,422; 0,09219
 573,82;30101,283;  345,978;36940,250; 0,08985
 574,40;30363,205;  307,643;37206,457; 0,08909
 574,98;29751,412;  325,149;36321,063; 0,08752
 575,56;28822,031;  342,797;35305,594; 0,08908
 576,15;29636,115;  331,283;36444,941; 0,09073
 576,73;31205,859;  345,304;38271,254; 0,08953
 577,31;33221,199;  332,864;40730,934; 0,08932
 577,89;34089,078;  434,001;41372,285; 0,08508
 578,47;31444,748;  342,360;38100,273; 0,08421
 579,05;30225,631;  335,571;36961,430; 0,08826
 579,64;31188,484;  327,978;38149,742; 0,08834
 580,22;31948,332;  315,740;38993,223; 0,08732
 580,80;33814,953;  321,439;41491,742; 0,08962
 581,38;36771,195;  336,699;44793,004; 0,08642
 581,96;35855,477;  345,000;43209,230; 0,08174
 582,54;32961,930;  320,162;39879,230; 0,08347
 583,12;31135,100;  334,679;37817,656; 0,08528
 583,71;31277,789;  348,958;38114,020; 0,08673
 584,29;32740,072;  366,913;39877,848; 0,08653
 584,87;34020,934;  312,704;41334,879; 0,08528
 585,45;34282,383;  339,094;41426,105; 0,08295
 586,03;33171,449;  329,060;40190,816; 0,08412
 586,61;33189,477;  324,046;40341,074; 0,08551
 587,19;34091,934;  343,024;41367,223; 0,08478
 587,77;33736,359;  290,143;40869,516; 0,08396
 588,35;33288,250;  318,539;40352,125; 0,08431
 588,94;33053,824;  349,931;40041,684; 0,08410
 589,52;33097,723;  300,891;40129,879; 0,08437
 590,10;33168,324;  301,820;40146,281; 0,08361
 590,68;33279,668;  373,949;40275,145; 0,08371
 591,26;33386,422;  317,385;40355,266; 0,08305
 591,84;33504,523;  322,392;40498,332; 0,08306
 592,42;34339,480;  344,590;41463,688; 0,08263
 593,00;34919,492;  360,912;42085,039; 0,08183
 593,58;34501,207;  342,212;41580,227; 0,08179
 594,16;34214,289;  344,508;41272,152; 0,08220
 594,74;34505,316;  355,773;41625,711; 0,08225
 595,32;34486,000;  341,253;41529,727; 0,08145
 595,90;34396,734;  325,978;41413,207; 0,08133
 596,49;34096,703;  296,176;41045,473; 0,08120
 597,07;34359,945;  292,327;41379,789; 0,08137
 597,65;34340,246;  300,479;41331,523; 0,08113
 598,23;34522,586;  299,564;41577,086; 0,08140
 598,81;34803,262;  308,069;41853,652; 0,08077
 599,39;34900,305;  320,103;41912,695; 0,08019
 599,97;34688,703;  322,623;41645,785; 0,08006
 600,55;34821,816;  314,854;41803,969; 0,08003
 601,13;34714,582;  328,370;41685,090; 0,08016
 601,71;34618,816;  319,533;41543,684; 0,07987
 602,29;34940,582;  325,929;41870,480; 0,07925
 602,87;34944,426;  312,996;41923,664; 0,07973
 603,45;34859,047;  325,775;41771,234; 0,07924
 604,03;34742,836;  321,136;41569,832; 0,07858
 604,61;34875,043;  356,322;41745,887; 0,07884
 605,19;34900,129;  323,982;41766,016; 0,07866
 605,77;35040,133;  326,862;41873,930; 0,07804
 606,35;35051,914;  319,249;41888,105; 0,07803
 606,93;35029,453;  313,952;41878,719; 0,07820
 607,51;34938,391;  324,376;41718,586; 0,07769
 608,09;34997,168;  311,962;41753,996; 0,07730
 608,67;34825,508;  322,717;41587,102; 0,07772
 609,25;34813,969;  331,263;41568,695; 0,07769
 609,83;34828,500;  317,536;41591,645; 0,07772
 610,41;34724,781;  303,102;41406,539; 0,07705
 610,99;34728,023;  329,845;41430,703; 0,07732
 611,57;34689,359;  296,668;41312,484; 0,07649
 612,14;34693,125;  327,389;41321,168; 0,07659
 612,72;34540,648;  311,352;41132,063; 0,07648
 613,30;34628,512;  338,004;41230,605; 0,07647
 613,88;34517,496;  304,866;41069,121; 0,07609
 614,46;34199,809;  317,355;40657,109; 0,07576
 615,04;34496,316;  390,636;40986,840; 0,07566
 615,62;34081,559;  316,223;40512,039; 0,07571
 616,20;34038,059;  328,045;40450,391; 0,07563
 616,78;34046,805;  340,163;40455,777; 0,07560
 617,36;33947,492;  313,250;40316,891; 0,07532
 617,94;33746,469;  298,413;39993,602; 0,07437
 618,52;33589,684;  316,710;39775,777; 0,07406
 619,10;33552,031;  310,413;39729,207; 0,07402
 619,67;33434,742;  336,620;39548,621; 0,07362
 620,25;33438,102;  294,345;39558,551; 0,07360
 620,83;33194,879;  342,349;39293,797; 0,07395
 621,41;33223,996;  341,967;39334,578; 0,07402
 621,99;33340,313;  334,842;39444,766; 0,07370
 622,57;33180,613;  316,482;39241,633; 0,07351
 623,15;33474,063;  317,151;39589,309; 0,07351
 623,73;33524,859;  297,936;39630,352; 0,07326
 624,30;33597,699;  319,229;39719,484; 0,07334
 624,88;33361,172;  308,892;39418,344; 0,07308
 625,46;33421,266;  287,449;39491,773; 0,07306
 626,04;33701,629;  338,445;39816,785; 0,07309
 626,62;33660,625;  319,101;39770,898; 0,07308
 627,20;33799,781;  347,512;39916,352; 0,07293
 627,78;33884,914;  323,829;39982,750; 0,07250
 628,35;33819,047;  369,525;39958,555; 0,07318
 628,93;33999,434;  298,776;40187,492; 0,07321
 629,51;34229,031;  340,636;40457,410; 0,07328
 630,09;34117,078;  306,174;40318,043; 0,07313
 630,67;34429,520;  335,580;40651,246; 0,07280
 631,25;34560,016;  334,271;40764,391; 0,07235
 631,82;34819,961;  331,582;41041,664; 0,07203
 632,40;34861,695;  332,740;41070,559; 0,07181
 632,98;34961,359;  322,858;41180,293; 0,07171
 633,56;35195,008;  336,585;41407,766; 0,07123
 634,14;35409,074;  328,623;41658,645; 0,07120
 634,71;35536,410;  329,821;41828,160; 0,07141
 635,29;35556,121;  309,582;41882,195; 0,07169
 635,87;35643,465;  319,399;41937,875; 0,07122
 636,45;35822,879;  345,444;42147,574; 0,07125
 637,03;36008,199;  324,225;42377,664; 0,07133
 637,60;36113,859;  387,676;42442,207; 0,07083
 638,18;36171,617;  322,112;42542,125; 0,07104
 638,76;36324,484;  317,712;42688,344; 0,07068
 639,34;36531,746;  355,373;42919,641; 0,07062
 639,91;36584,465;  342,463;42960,344; 0,07038
 640,49;36617,754;  332,583;42977,680; 0,07014
 641,07;36668,723;  317,446;43053,051; 0,07027
 641,65;36743,582;  323,705;43054,727; 0,06940
 642,22;36670,559;  330,095;42969,789; 0,06942
 642,80;36794,273;  309,574;43106,195; 0,06930
 643,38;36818,125;  294,997;43093,547; 0,06886
 643,96;37009,891;  334,317;43347,492; 0,06922
 644,53;36893,137;  314,966;43184,020; 0,06892
 645,11;37043,859;  333,772;43354,309; 0,06889
 645,69;37162,020;  352,438;43445,477; 0,06845
 646,27;37088,492;  329,755;43364,070; 0,06845
 646,84;37282,074;  343,851;43576,367; 0,06833
 647,42;37003,793;  325,864;43251,027; 0,06831
 648,00;37100,551;  283,483;43358,266; 0,06817
 648,57;37335,734;  312,573;43627,871; 0,06817
 649,15;37395,703;  311,762;43661,477; 0,06780
 649,73;37494,621;  339,455;43789,941; 0,06798
 650,31;37463,016;  310,378;43735,688; 0,06775
 650,88;37541,777;  332,071;43831,801; 0,06783
 651,46;37636,773;  327,577;43935,359; 0,06775
 652,04;37598,387;  292,353;43873,652; 0,06752
 652,61;37862,023;  318,683;44179,199; 0,06754
 653,19;38035,184;  340,782;44350,820; 0,06727
 653,77;38076,969;  308,318;44411,324; 0,06734
 654,34;38301,023;  320,458;44727,211; 0,06789
 654,92;39564,727;  321,574;46571,719; 0,07135
 655,50;48913,129;  313,950;57444,570; 0,07024
 656,07;52661,711;  307,380;60268,895; 0,05892
 656,65;43616,797;  299,769;49930,965; 0,05910
 657,23;39731,836;  460,825;46215,434; 0,06636
 657,80;39376,523;  330,195;45891,578; 0,06702
 658,38;39481,211;  332,308;45956,336; 0,06647
 658,95;39736,070;  329,914;46250,957; 0,06645
 659,53;39791,918;  305,723;46266,742; 0,06594
 660,11;40113,367;  295,209;46640,125; 0,06592
 660,68;40581,344;  364,466;47165,227; 0,06584
 661,26;40964,594;  315,738;47669,266; 0,06630
 661,84;41193,266;  339,481;47928,133; 0,06627
 662,41;41668,020;  304,854;48444,648; 0,06589
 662,99;41983,563;  310,867;48809,129; 0,06587
 663,56;42375,871;  300,030;49197,164; 0,06525
 664,14;42797,203;  305,529;49640,113; 0,06485
 664,72;43026,109;  312,342;49911,949; 0,06491
 665,29;43596,969;  316,532;50538,797; 0,06460
 665,87;43912,504;  316,858;50927,691; 0,06480
 666,44;44172,262;  320,804;51239,988; 0,06490
 667,02;44361,152;  316,233;51415,176; 0,06452
 667,59;44771,410;  297,903;51851,457; 0,06416
 668,17;45122,301;  311,462;52243,398; 0,06405
 668,75;45321,395;  326,259;52469,746; 0,06403
 669,32;45361,684;  328,418;52486,012; 0,06378
 669,90;45528,059;  306,151;52673,059; 0,06371
 670,47;45574,168;  283,951;52748,133; 0,06386
 671,05;45621,109;  315,813;52759,055; 0,06354
 671,62;45549,992;  293,350;52670,484; 0,06346
 672,20;45783,047;  303,629;52915,754; 0,06327
 672,77;45583,813;  325,582;52726,363; 0,06364
 673,35;45565,281;  330,765;52685,742; 0,06349
 673,93;45846,469;  307,001;53014,137; 0,06348
 674,50;45834,949;  317,357;53024,859; 0,06369
 675,08;45871,020;  312,307;53038,137; 0,06345
 675,65;46054,332;  277,426;53216,438; 0,06313
 676,23;46356,340;  323,072;53543,258; 0,06300
 676,80;46587,891;  322,498;53900,023; 0,06373
 677,38;46549,539;  293,385;53868,008; 0,06379
 677,95;46949,688;  320,784;54339,199; 0,06389
 678,53;47294,422;  315,324;54684,531; 0,06345
 679,10;47158,559;  334,090;54514,672; 0,06337
 679,68;47531,391;  304,076;54926,871; 0,06318
 680,25;48077,379;  348,572;55554,227; 0,06320
 680,83;47794,520;  295,945;55138,211; 0,06243
 681,40;48144,648;  335,938;55532,293; 0,06240
 681,98;47946,715;  278,101;55335,977; 0,06259
 682,55;48106,230;  314,640;55580,426; 0,06310
 683,12;48193,902;  304,096;55685,441; 0,06312
 683,70;48253,496;  319,866;55718,035; 0,06286
 684,27;48246,223;  297,935;55712,422; 0,06285
 684,85;48574,797;  320,288;56038,406; 0,06246
 685,42;48588,043;  299,078;55991,926; 0,06195
 686,00;48602,598;  322,617;56050,535; 0,06231
 686,57;49164,484;  327,113;56713,582; 0,06242
 687,15;49077,398;  310,196;56621,039; 0,06246
 687,72;49238,125;  295,796;56781,586; 0,06225
 688,29;49234,605;  308,812;56715,680; 0,06179
 688,87;49369,203;  313,068;56937,207; 0,06231
 689,44;49453,336;  277,837;56983,203; 0,06188
 690,02;49687,938;  311,190;57270,969; 0,06205
 690,59;49774,922;  317,683;57420,836; 0,06243
 691,17;49998,191;  310,463;57627,164; 0,06203
 691,74;50206,230;  318,976;57871,406; 0,06207
 692,31;50237,930;  299,322;57852,164; 0,06163
 692,89;50461,434;  289,585;58121,703; 0,06171
 693,46;50843,020;  300,031;58590,320; 0,06194
 694,04;50778,035;  306,357;58540,563; 0,06213
 694,61;51001,090;  325,723;58794,379; 0,06213
 695,18;51210,395;  301,256;59028,563; 0,06204
 695,76;51210,945;  315,192;59022,719; 0,06201
 696,33;51426,980;  307,038;59281,770; 0,06208
 696,90;51790,461;  312,088;59613,645; 0,06144
 697,48;51755,379;  303,791;59606,820; 0,06168
 698,05;51919,379;  291,743;59763,484; 0,06143
 698,62;52168,016;  327,446;60044,328; 0,06143
 699,20;52242,316;  299,856;60113,863; 0,06128
 699,77;52453,832;  314,795;60333,434; 0,06112
 700,35;52563,508;  292,728;60468,285; 0,06116
 700,92;52405,793;  317,694;60292,422; 0,06123
 701,49;52697,098;  311,787;60598,523; 0,06101
 702,07;53031,734;  335,063;60971,645; 0,06095
 702,64;52995,902;  296,679;60882,664; 0,06057
 703,21;53039,918;  330,262;60962,133; 0,06081
 703,78;53194,375;  326,505;61124,387; 0,06070
 704,36;53133,691;  325,258;61058,793; 0,06073
 704,93;53263,953;  308,884;61206,875; 0,06070
 705,50;53181,180;  289,800;61101,320; 0,06060
 706,08;53464,824;  300,853;61521,926; 0,06128
 706,65;53457,531;  326,393;61438,508; 0,06078
 707,22;53786,641;  324,602;61828,801; 0,06086
 707,80;53820,066;  330,628;61867,340; 0,06087
 708,37;53666,789;  313,505;61605,164; 0,06024
 708,94;53398,152;  308,571;61356,707; 0,06066
 709,51;53723,938;  306,300;61705,441; 0,06048
 710,09;53800,754;  323,966;61762,090; 0,06027
 710,66;53884,535;  316,193;61914,949; 0,06066
 711,23;54026,281;  328,865;62005,336; 0,06017
 711,81;53973,297;  314,325;61964,410; 0,06029
 712,38;53993,730;  292,038;62005,492; 0,06039
 712,95;54311,520;  327,621;62353,750; 0,06031
 713,52;54197,723;  327,043;62318,785; 0,06098
 714,10;54169,898;  312,710;62218,641; 0,06049
 714,67;54380,523;  331,232;62476,828; 0,06062
 715,24;54286,531;  323,915;62402,285; 0,06085
 715,81;54002,770;  287,431;62018,852; 0,06041
 716,38;54423,949;  307,131;62531,781; 0,06063
 716,96;54472,230;  318,920;62580,766; 0,06060
 717,53;54485,770;  304,943;62558,520; 0,06032
 718,10;54571,254;  323,469;62643,547; 0,06025
 718,67;54437,008;  330,276;62472,113; 0,06013
 719,25;54864,117;  298,375;62944,988; 0,05998
 719,82;54756,988;  377,228;62808,266; 0,05996
 720,39;54381,457;  303,241;62398,375; 0,06004
 720,96;54822,359;  296,244;62881,996; 0,05987
 721,53;54648,043;  299,480;62650,535; 0,05966
 722,11;54713,395;  281,389;62742,840; 0,05976
 722,68;54667,488;  327,785;62705,746; 0,05991
 723,25;55020,094;  307,952;63116,324; 0,05993
 723,82;55164,555;  331,174;63303,469; 0,06010
 724,39;55068,180;  316,807;63204,863; 0,06017
 724,96;55403,824;  305,220;63551,828; 0,05990
 725,54;55383,172;  321,836;63525,164; 0,05989
 726,11;55373,871;  291,179;63470,418; 0,05956
 726,68;55271,355;  288,705;63350,008; 0,05954
 727,25;55415,230;  297,305;63504,883; 0,05948
 727,82;55174,180;  289,544;63162,441; 0,05901
 728,39;55461,801;  299,681;63499,219; 0,05907
 728,96;55673,863;  299,283;63776,574; 0,05931
 729,54;55826,289;  300,103;63968,535; 0,05943
 730,11;55853,555;  337,509;64052,082; 0,05982
 730,68;55816,988;  285,535;63979,152; 0,05956
 731,25;55715,508;  318,545;63756,156; 0,05886
 731,82;56205,543;  318,208;64444,973; 0,05973
 732,39;56083,320;  268,700;64245,633; 0,05928
 732,96;56168,090;  307,720;64394,926; 0,05967
 733,53;56050,426;  295,169;64226,301; 0,05943
 734,10;56482,660;  314,159;64681,398; 0,05917
 734,68;56382,199;  308,575;64579,781; 0,05926
 735,25;56392,543;  290,588;64659,172; 0,05970
 735,82;56247,586;  296,231;64426,020; 0,05925
 736,39;56563,824;  324,217;64790,184; 0,05929
 736,96;56392,762;  289,826;64522,348; 0,05877
 737,53;56524,105;  332,999;64684,570; 0,05889
 738,10;56362,883;  286,965;64524,641; 0,05901
 738,67;56352,707;  313,768;64547,660; 0,05927
 739,24;56426,184;  318,754;64647,926; 0,05939
 739,81;56150,656;  286,317;64246,738; 0,05878
 740,38;55836,906;  265,693;63894,938; 0,05881
 740,95;55954,180;  313,810;64094,309; 0,05930
 741,52;55986,059;  294,572;64138,941; 0,05933
 742,09;55377,344;  335,325;63400,000; 0,05909
 742,66;55783,441;  287,955;63930,457; 0,05949
 743,23;55672,930;  325,504;63861,508; 0,05992
 743,80;55821,242;  321,287;63920,262; 0,05916
 744,37;55515,000;  306,657;63629,094; 0,05955
 744,94;55375,227;  312,923;63506,762; 0,05982
 745,51;55335,145;  293,406;63430,633; 0,05959
 746,09;55334,813;  343,325;63432,191; 0,05966
 746,66;54699,078;  311,835;62717,250; 0,05973
 747,23;54953,414;  367,531;63029,645; 0,05992
 747,80;54675,699;  301,000;62722,141; 0,05993
 748,36;54311,504;  299,373;62309,301; 0,05997
 748,93;54458,230;  285,269;62515,016; 0,06022
 749,50;54441,828;  330,052;62509,871; 0,06036
 750,07;54377,504;  315,115;62458,895; 0,06050
 750,64;54228,867;  299,761;62287,793; 0,06048
 751,21;53741,699;  322,134;61758,969; 0,06073
 751,78;53712,012;  316,247;61843,027; 0,06156
 752,35;53574,324;  316,670;61687,902; 0,06158
 752,92;53392,762;  313,349;61531,895; 0,06196
 753,49;53120,414;  395,979;61249,926; 0,06228
 754,06;53106,008;  324,078;61286,328; 0,06258
 754,63;53103,590;  336,594;61323,238; 0,06287
 755,20;52552,625;  294,201;60628,602; 0,06241
 755,77;52892,934;  350,320;61044,719; 0,06264
 756,34;52752,949;  323,436;60891,141; 0,06267
 756,91;52437,320;  299,796;60502,496; 0,06247
 757,48;52566,266;  302,325;60617,301; 0,06222
 758,05;52535,316;  342,878;60616,121; 0,06252
 758,62;51968,563;  301,748;59962,781; 0,06248
 759,19;52040,902;  342,804;60078,652; 0,06276
 759,75;51883,465;  293,597;59875,891; 0,06255
 760,32;51743,832;  310,073;59687,145; 0,06237
 760,89;51458,922;  312,382;59418,660; 0,06282
 761,46;51198,898;  325,175;59138,051; 0,06298
 762,03;51263,918;  318,215;59301,371; 0,06362
 762,60;50987,121;  299,471;59012,582; 0,06383
 763,17;51011,746;  313,260;59051,059; 0,06392
 763,74;51024,023;  318,523;59026,262; 0,06364
 764,31;50822,734;  290,586;58810,379; 0,06374
 764,87;50893,180;  307,496;58805,121; 0,06311
 765,44;50544,762;  300,535;58436,098; 0,06336
 766,01;50241,121;  317,691;58118,613; 0,06363
 766,58;50444,113;  425,667;58303,934; 0,06339
 767,15;50047,617;  321,290;57853,297; 0,06332
 767,72;50017,500;  299,160;57847,125; 0,06351
 768,28;50019,527;  315,279;57838,043; 0,06345
 768,85;49976,063;  311,225;57804,789; 0,06357
 769,42;49754,012;  309,198;57498,457; 0,06319
 769,99;49462,055;  266,828;57202,051; 0,06346
 770,56;49644,094;  308,844;57456,320; 0,06384
 771,13;49379,035;  303,447;57146,938; 0,06382
 771,69;49254,945;  294,733;57023,488; 0,06396
 772,26;49148,836;  290,979;56930,391; 0,06418
 772,83;48963,473;  289,812;56740,016; 0,06437
 773,40;48959,016;  300,031;56754,953; 0,06454
 773,97;48854,926;  321,824;56645,035; 0,06465
 774,53;48762,699;  314,214;56500,926; 0,06435
 775,10;48567,188;  294,720;56314,457; 0,06464
 775,67;48640,422;  311,183;56417,555; 0,06480
 776,24;48552,473;  324,866;56272,063; 0,06448
 776,81;48278,809;  296,098;56015,332; 0,06492
 777,37;48304,434;  294,718;56125,988; 0,06555
 777,94;48110,332;  286,967;55903,113; 0,06556
 778,51;48123,930;  318,080;55942,879; 0,06579
 779,08;47871,188;  330,286;55651,563; 0,06582
 779,64;47775,703;  284,849;55593,563; 0,06618
 780,21;47861,863;  326,649;55734,867; 0,06656
 780,78;47830,535;  304,198;55697,520; 0,06652
 781,35;47624,020;  302,508;55430,723; 0,06632
 781,91;47455,898;  282,697;55245,191; 0,06637
 782,48;47390,180;  291,540;55172,008; 0,06641
 783,05;46962,543;  294,483;54661,047; 0,06631
 783,62;46973,285;  316,959;54645,105; 0,06611
 784,18;46805,137;  309,535;54466,676; 0,06624
 784,75;46572,203;  297,952;54159,391; 0,06594
 785,32;46520,723;  315,954;54133,324; 0,06624
 785,88;46336,223;  296,394;53863,848; 0,06577
 786,45;46345,996;  330,633;53940,609; 0,06634
 787,02;46199,941;  286,043;53828,840; 0,06676
 787,58;46054,289;  339,116;53631,488; 0,06660
 788,15;45688,684;  325,032;53241,086; 0,06688
 788,72;45367,273;  300,505;52868,504; 0,06687
 789,29;45218,629;  291,204;52758,941; 0,06738
 789,85;45036,398;  316,500;52526,379; 0,06725
 790,42;44838,078;  300,100;52300,992; 0,06728
 790,99;44636,340;  332,619;52053,645; 0,06723
 791,55;44376,910;  307,239;51812,156; 0,06771
 792,12;44139,836;  307,578;51564,309; 0,06796
 792,69;43863,633;  323,698;51247,180; 0,06803
 793,25;43652,730;  297,541;51005,109; 0,06803
 793,82;43675,391;  330,087;51047,500; 0,06822
 794,38;43420,664;  281,243;50766,188; 0,06829
 794,95;43091,363;  311,536;50358,746; 0,06814
 795,52;42732,426;  302,542;49915,789; 0,06793
 796,08;42509,121;  295,108;49663,688; 0,06799
 796,65;42180,234;  336,981;49246,875; 0,06777
 797,22;42032,738;  285,934;49103,797; 0,06796
 797,78;41705,598;  310,187;48690,797; 0,06772
 798,35;41536,340;  320,543;48505,617; 0,06785
 798,91;41359,070;  336,272;48303,512; 0,06792
 799,48;41153,281;  323,579;48135,617; 0,06856
 800,05;40849,059;  304,558;47800,164; 0,06872
 800,61;40516,832;  311,774;47427,004; 0,06888
 801,18;40431,133;  325,977;47309,113; 0,06874
 801,74;40028,074;  326,350;46846,953; 0,06884
 802,31;39908,664;  336,183;46716,785; 0,06894
 802,88;39537,898;  308,802;46326,848; 0,06932
 803,44;39417,602;  321,415;46187,004; 0,06935
 804,01;39244,496;  315,745;45997,039; 0,06947
 804,57;38959,727;  320,844;45672,934; 0,06957
 805,14;38754,664;  311,717;45472,922; 0,06995
 805,70;38489,848;  326,073;45106,684; 0,06944
 806,27;38480,141;  298,593;45083,895; 0,06928
 806,83;38200,637;  325,882;44761,727; 0,06938
 807,40;37855,023;  307,358;44412,215; 0,06990
 807,96;37894,160;  397,191;44449,367; 0,06997
 808,53;37776,574;  298,201;44322,324; 0,06991
 809,10;37615,270;  319,820;44173,082; 0,07035
 809,66;37500,586;  322,380;44066,234; 0,07063
 810,23;37221,250;  358,999;43758,402; 0,07090
 810,79;37143,969;  323,782;43689,832; 0,07106
 811,36;37013,070;  310,285;43531,344; 0,07100
 811,92;37194,504;  319,544;43705,250; 0,07062
 812,49;36972,426;  294,841;43474,938; 0,07088
 813,05;37070,852;  333,493;43582,422; 0,07087
 813,62;36908,281;  315,176;43412,680; 0,07105
 814,18;36767,219;  332,002;43183,230; 0,07044
 814,75;36489,520;  314,925;42901,285; 0,07087
 815,31;36559,633;  355,635;42955,973; 0,07066
 815,87;36465,293;  350,794;42885,309; 0,07106
 816,44;36159,609;  315,810;42549,320; 0,07124
 817,00;35999,949;  303,363;42329,133; 0,07089
 817,57;35939,621;  324,169;42253,355; 0,07088
 818,13;35524,832;  324,656;41770,871; 0,07094
 818,70;35304,828;  348,135;41565,949; 0,07155
 819,26;35362,355;  379,891;41562,035; 0,07086
 819,83;35221,688;  343,678;41415,488; 0,07099
 820,39;35150,691;  347,317;41334,035; 0,07102
 820,95;34911,180;  322,510;41081,191; 0,07129
 821,52;34626,367;  315,366;40740,387; 0,07122
 822,08;34620,465;  334,492;40737,992; 0,07130
 822,65;34483,199;  329,988;40596,523; 0,07151
 823,21;34187,824;  317,251;40203,523; 0,07100
 823,78;34352,551;  356,007;40438,852; 0,07152
 824,34;34151,285;  307,374;40183,773; 0,07124
 824,90;34210,859;  365,286;40291,438; 0,07176
 825,47;34015,219;  347,563;40073,594; 0,07186
 826,03;33868,418;  319,152;39918,398; 0,07200
 826,60;33675,074;  306,715;39686,176; 0,07193
 827,16;33848,727;  351,624;39908,438; 0,07221
 827,72;33744,008;  334,517;39787,492; 0,07221
 828,29;33426,125;  304,930;39437,758; 0,07244
 828,85;33589,332;  321,210;39617,621; 0,07232
 829,41;33401,563;  315,806;39406,234; 0,07243
 829,98;33423,051;  341,352;39448,457; 0,07267
 830,54;33330,637;  323,148;39348,680; 0,07274
 831,10;33252,602;  323,168;39261,637; 0,07279
 831,67;33272,016;  351,097;39286,512; 0,07287
 832,23;33173,867;  336,750;39184,047; 0,07300
 832,79;33009,762;  345,636;39022,223; 0,07338
 833,36;33028,246;  342,219;39036,254; 0,07328
 833,92;32932,723;  336,142;38925,148; 0,07329
 834,48;32833,848;  301,575;38779,023; 0,07289
 835,05;32789,289;  328,304;38773,152; 0,07348
 835,61;32825,359;  323,150;38816,496; 0,07347
 836,17;32819,543;  325,660;38845,570; 0,07388
 836,74;32809,184;  328,649;38814,098; 0,07367
 837,30;32657,121;  322,926;38637,809; 0,07371
 837,86;32540,285;  318,565;38512,160; 0,07384
 838,43;32388,609;  305,841;38363,832; 0,07417
 838,99;32456,410;  318,417;38441,797; 0,07417
 839,55;32397,516;  299,417;38408,387; 0,07455
 840,11;32363,467;  321,033;38362,875; 0,07454
 840,68;32287,158;  336,363;38269,094; 0,07453
 841,24;32177,869;  285,552;38122,633; 0,07423
 841,80;32077,336;  320,108;37978,410; 0,07402
 842,36;32122,592;  321,694;38083,344; 0,07461
 842,93;32065,826;  319,411;38053,176; 0,07504
 843,49;31978,211;  366,913;37923,219; 0,07484
 844,05;31941,428;  305,716;37885,328; 0,07477
 844,61;31797,283;  314,599;37720,914; 0,07487
 845,18;31660,090;  301,592;37579,570; 0,07510
 845,74;31673,244;  284,378;37592,324; 0,07503
 846,30;31601,029;  337,548;37492,375; 0,07498
 846,86;31487,871;  321,694;37375,344; 0,07515
 847,43;31519,117;  321,333;37395,883; 0,07495
 847,99;31251,727;  309,936;37079,863; 0,07495
 848,55;31241,057;  312,666;37081,375; 0,07512
 849,11;31207,521;  320,285;37038,496; 0,07510
 849,67;31091,936;  300,368;36913,082; 0,07520
 850,24;30914,354;  301,304;36744,723; 0,07571
 850,80;30808,549;  286,930;36617,105; 0,07566
 851,36;30934,783;  347,116;36743,574; 0,07551
 851,92;30779,201;  314,449;36580,047; 0,07570
 852,48;30647,639;  305,809;36449,813; 0,07599
 853,04;30585,973;  328,915;36354,129; 0,07578
 853,61;30568,484;  318,231;36297,203; 0,07532
 854,17;30476,512;  400,897;36161,066; 0,07519
 854,73;30317,412;  299,187;36036,578; 0,07574
 855,29;30181,420;  312,773;35881,414; 0,07585
 855,85;30024,242;  302,419;35707,727; 0,07599
 856,41;29931,303;  292,769;35638,445; 0,07648
 856,97;29996,527;  304,102;35680,738; 0,07607
 857,54;29822,461;  295,658;35460,859; 0,07590
 858,10;29788,209;  333,714;35406,227; 0,07582
 858,66;29590,398;  308,520;35188,742; 0,07598
 859,22;29560,576;  324,280;35154,438; 0,07603
 859,78;29336,787;  298,046;34900,406; 0,07613
 860,34;29318,375;  301,792;34857,613; 0,07587
 860,90;29364,475;  338,488;34910,375; 0,07594
 861,46;29174,684;  295,754;34708,359; 0,07614
 862,02;29029,787;  317,067;34529,262; 0,07611
 862,59;28871,893;  310,633;34362,523; 0,07636
 863,15;28826,920;  293,426;34337,504; 0,07669
 863,71;28817,990;  280,842;34332,258; 0,07672
 864,27;28931,902;  374,218;34430,199; 0,07647
 864,83;28572,236;  311,931;34005,742; 0,07637
 865,39;28629,328;  339,177;34049,379; 0,07613
 865,95;28475,152;  316,807;33897,254; 0,07648
 866,51;28405,373;  305,200;33828,723; 0,07664
 867,07;28275,324;  312,336;33668,098; 0,07659
 867,63;28152,625;  317,432;33554,676; 0,07703
 868,19;28202,637;  289,338;33597,973; 0,07675
 868,75;28053,121;  301,998;33463,352; 0,07735
 869,31;28113,623;  329,777;33494,523; 0,07688
 869,87;27958,486;  316,560;33335,813; 0,07720
 870,43;27912,012;  356,853;33308,383; 0,07767
 870,99;27789,912;  315,452;33220,332; 0,07833
 871,55;27679,133;  312,249;33108,828; 0,07860
 872,11;27674,961;  316,338;33088,535; 0,07841
 872,67;27686,672;  352,711;33102,332; 0,07850
 873,23;27601,168;  299,347;33061,512; 0,07918
 873,79;27573,848;  354,573;32991,648; 0,07883
 874,35;27513,035;  347,159;32961,270; 0,07938
 874,91;27283,146;  297,263;32650,561; 0,07878
 875,47;27217,146;  288,816;32585,131; 0,07894
 876,03;27294,627;  327,973;32714,684; 0,07954
 876,59;27222,307;  322,643;32636,449; 0,07964
 877,15;27246,445;  324,030;32647,736; 0,07941
 877,71;27333,539;  322,240;32759,000; 0,07949
 878,27;27336,100;  281,653;32754,273; 0,07928
 878,83;27474,639;  319,673;32887,520; 0,07894
 879,39;27416,873;  297,736;32804,969; 0,07870
 879,95;27617,510;  321,370;33038,867; 0,07868
 880,51;27675,566;  341,356;33096,695; 0,07858
 881,07;27677,873;  333,153;33095,410; 0,07850
 881,63;27698,652;  288,909;33150,910; 0,07879
 882,19;27892,227;  316,446;33393,605; 0,07900
 882,75;27959,779;  335,680;33501,969; 0,07941
 883,31;28048,492;  318,500;33617,559; 0,07948
 883,87;28106,422;  293,793;33670,785; 0,07921
 884,42;28296,332;  309,203;33887,332; 0,07910
 884,98;28363,002;  280,210;33974,578; 0,07912
 885,54;28545,969;  323,803;34173,340; 0,07896
 886,10;28612,963;  336,520;34298,176; 0,07956
 886,66;28714,047;  316,866;34411,715; 0,07941
 887,22;28762,240;  328,759;34458,691; 0,07931
 887,78;28797,383;  331,806;34497,457; 0,07927
 888,34;28732,660;  305,816;34449,758; 0,07959
 888,89;28741,736;  302,503;34459,141; 0,07956
 889,45;28766,242;  352,143;34489,418; 0,07969
 890,01;28564,557;  315,263;34238,980; 0,07950
 890,57;28435,676;  295,553;34111,547; 0,07980
 891,13;28316,482;  315,993;33997,707; 0,08023
 891,69;28110,543;  305,879;33767,906; 0,08043
 892,25;27929,340;  313,553;33556,363; 0,08054
 892,80;27779,836;  318,526;33397,730; 0,08083
 893,36;27547,523;  326,720;33125,590; 0,08096
 893,92;27345,326;  335,283;32913,453; 0,08140
 894,48;27169,670;  319,859;32666,150; 0,08088
 895,04;27100,490;  323,796;32588,756; 0,08097
 895,60;26902,582;  354,773;32343,150; 0,08096
 896,15;26720,900;  315,370;32119,750; 0,08079
 896,71;26521,035;  349,406;31854,127; 0,08054
 897,27;26378,025;  325,453;31667,689; 0,08028
 897,83;26248,162;  337,246;31560,869; 0,08100
 898,39;26021,566;  330,226;31269,174; 0,08072
 898,94;26023,646;  352,626;31297,063; 0,08114
 899,50;25645,586;  287,546;30850,461; 0,08108
 900,06;25509,549;  292,363;30727,797; 0,08168
 900,62;25536,889;  322,500;30739,631; 0,08147
 901,17;25564,146;  320,186;30802,000; 0,08188
 901,73;25294,869;  295,453;30432,104; 0,08117
 902,29;25229,346;  321,456;30364,086; 0,08140
 902,85;25105,977;  321,973;30208,764; 0,08131
 903,40;25031,869;  392,953;30099,547; 0,08123
 903,96;24981,490;  335,000;30043,344; 0,08112
 904,52;24814,406;  328,823;29813,859; 0,08069
 905,08;24653,236;  307,183;29644,199; 0,08099
 905,63;24689,783;  337,750;29683,807; 0,08101
 906,19;24609,162;  341,419;29614,199; 0,08143
 906,75;24444,982;  315,976;29437,990; 0,08168
 907,30;24349,023;  322,819;29329,543; 0,08181
 907,86;24220,080;  339,146;29184,607; 0,08203
 908,42;24142,986;  363,153;29041,650; 0,08135
 908,98;24093,863;  329,620;29019,066; 0,08180
 909,53;23929,346;  313,676;28824,916; 0,08182
 910,09;23930,713;  352,446;28805,350; 0,08161
 910,65;23849,740;  320,183;28725,104; 0,08178
 911,20;23698,082;  315,103;28542,783; 0,08178
 911,76;23674,039;  321,103;28519,920; 0,08189
 912,32;23620,639;  352,133;28480,619; 0,08238
 912,87;23484,105;  334,750;28316,291; 0,08233
 913,43;23335,010;  325,569;28157,490; 0,08264
 913,99;23321,303;  332,426;28124,311; 0,08240
 914,54;23149,479;  333,346;27947,199; 0,08288
 915,10;23138,146;  344,863;27948,434; 0,08316
 915,66;23001,236;  333,843;27772,287; 0,08296
 916,21;23042,139;  358,893;27821,607; 0,08304
 916,77;22886,166;  329,266;27647,113; 0,08317
 917,32;22769,115;  342,020;27506,791; 0,08323
 917,88;22627,223;  314,479;27318,801; 0,08288
 918,44;22597,213;  330,539;27283,377; 0,08295
 918,99;22434,422;  350,903;27115,893; 0,08350
 919,55;22331,410;  330,373;27002,000; 0,08361
 920,10;22295,092;  329,690;26937,877; 0,08328
 920,66;22208,979;  335,120;26853,430; 0,08362
 921,22;21942,289;  293,323;26517,900; 0,08327
 921,77;22122,035;  339,780;26720,053; 0,08318
 922,33;21859,822;  322,516;26438,211; 0,08371
 922,88;21865,832;  326,373;26443,873; 0,08370
 923,44;21683,627;  339,389;26272,783; 0,08458
 924,00;21699,803;  360,833;26269,199; 0,08427
 924,55;21538,057;  310,946;26086,520; 0,08432
 925,11;21529,232;  327,656;26085,363; 0,08454
 925,66;21372,000;  330,030;25899,340; 0,08463
 926,22;21312,912;  315,150;25805,840; 0,08421
 926,77;21306,076;  342,913;25787,227; 0,08413
 927,33;21170,133;  326,976;25647,494; 0,08451
 927,88;20977,010;  324,806;25408,188; 0,08442
 928,44;21004,902;  308,036;25442,143; 0,08436
 928,99;20894,930;  322,900;25342,744; 0,08501
 929,55;20900,996;  365,373;25320,967; 0,08466
 930,10;20745,707;  333,683;25134,137; 0,08457
 930,66;20750,350;  349,669;25150,053; 0,08481
 931,21;20601,123;  330,066;25002,613; 0,08534
 931,77;20442,729;  331,843;24813,777; 0,08541
 932,32;20399,609;  311,293;24737,750; 0,08492
 932,88;20383,373;  331,919;24742,340; 0,08543
 933,43;20281,736;  354,546;24600,811; 0,08520
 933,99;20153,152;  317,446;24447,779; 0,08512
 934,54;20057,707;  356,553;24343,576; 0,08548
 935,10;19970,553;  325,620;24237,484; 0,08536
 935,65;19917,053;  317,573;24160,721; 0,08512
 936,21;19816,736;  302,919;24081,447; 0,08584
 936,76;19800,412;  357,750;24023,211; 0,08536
 937,32;19698,377;  316,490;23926,971; 0,08571
 937,87;19599,373;  367,013;23831,037; 0,08637
 938,43;19609,799;  337,379;23809,449; 0,08562
 938,98;19499,260;  346,606;23696,680; 0,08606
 939,53;19262,850;  307,536;23426,150; 0,08623
 940,09;19333,920;  364,039;23507,891; 0,08637
 940,64;19141,516;  330,086;23288,033; 0,08651
 941,20;19123,320;  327,520;23265,367; 0,08649
 941,75;19041,316;  335,949;23133,123; 0,08591
 942,30;18979,740;  326,609;23077,324; 0,08624
 942,86;18807,176;  316,020;22871,221; 0,08628
 943,41;18824,764;  323,383;22878,430; 0,08604
 943,97;18701,307;  328,923;22731,424; 0,08613
 944,52;18650,764;  349,120;22719,500; 0,08718
 945,07;18601,707;  328,856;22631,084; 0,08654
 945,63;18533,883;  361,253;22525,557; 0,08624
 946,18;18411,533;  313,329;22422,061; 0,08693
 946,74;18299,750;  329,896;22316,307; 0,08761
 947,29;18247,779;  345,383;22262,164; 0,08787
 947,84;18248,850;  345,463;22238,930; 0,08738
 948,40;18183,506;  354,283;22138,906; 0,08702
 948,95;18069,822;  374,699;21994,311; 0,08699
 949,50;17986,039;  320,853;21901,193; 0,08694
 950,06;17904,547;  315,343;21798,094; 0,08684
 950,61;17812,842;  317,013;21674,791; 0,08662
 951,16;17835,559;  341,699;21696,354; 0,08661
 951,72;17746,680;  328,953;21590,311; 0,08660
 952,27;17689,316;  316,356;21540,957; 0,08697
 952,82;17518,186;  341,856;21377,557; 0,08803
 953,38;17511,539;  347,293;21349,006; 0,08763
 953,93;17353,613;  316,866;21156,010; 0,08749
 954,48;17286,760;  304,520;21099,574; 0,08797
 955,03;17250,365;  320,563;21010,557; 0,08711
 955,59;17151,949;  337,883;20933,357; 0,08810
 956,14;17082,256;  324,349;20850,250; 0,08808
 956,69;16969,830;  313,336;20693,604; 0,08763
 957,24;16899,900;  324,863;20621,277; 0,08796
 957,80;16863,047;  332,193;20558,971; 0,08763
 958,35;16726,785;  345,060;20392,063; 0,08769
 958,90;16662,166;  328,349;20320,246; 0,08777
 959,46;16608,785;  314,813;20244,896; 0,08748
 960,01;16509,832;  321,210;20149,254; 0,08807
 960,56;16402,992;  311,023;20028,123; 0,08823
 961,11;16365,072;  341,780;19956,270; 0,08783
 961,66;16237,973;  297,353;19813,641; 0,08789
 962,22;16236,723;  327,990;19812,863; 0,08806
 962,77;16140,010;  332,829;19671,803; 0,08758
 963,32;15950,437;  307,109;19447,703; 0,08763
 963,87;15973,209;  324,520;19473,566; 0,08767
 964,43;15837,143;  314,126;19302,424; 0,08751
 964,98;15856,596;  368,533;19323,627; 0,08773
 965,53;15651,909;  307,970;19081,119; 0,08760
 966,08;15660,553;  346,866;19087,438; 0,08770
 966,63;15494,103;  328,900;18904,447; 0,08809
 967,18;15463,156;  326,566;18860,768; 0,08795
 967,74;15308,039;  338,280;18698,416; 0,08866
 968,29;15199,152;  312,139;18552,326; 0,08822
 968,84;15138,772;  312,696;18491,916; 0,08855
 969,39;14932,926;  309,376;18249,277; 0,08877
 969,94;14913,393;  331,393;18220,383; 0,08877
 970,49;14888,806;  334,493;18175,291; 0,08842
 971,05;14763,329;  325,690;18011,246; 0,08812
 971,60;14654,916;  334,683;17874,477; 0,08807
 972,15;14528,103;  320,906;17710,006; 0,08777
 972,70;14527,883;  361,250;17720,066; 0,08825
 973,25;14381,056;  335,423;17528,996; 0,08782
 973,80;14297,836;  341,199;17446,477; 0,08835
 974,35;14183,520;  313,656;17294,844; 0,08790
 974,90;14066,313;  325,913;17165,637; 0,08834
 975,46;13995,479;  335,093;17083,080; 0,08850
 976,01;13910,456;  340,206;17021,221; 0,08963
 976,56;13810,196;  336,873;16863,770; 0,08872
 977,11;13638,083;  319,639;16673,439; 0,08917
 977,66;13453,310;  311,886;16437,311; 0,08887
 978,21;13459,326;  338,949;16425,244; 0,08851
 978,76;13351,883;  315,729;16309,356; 0,08880
 979,31;13232,470;  341,560;16166,604; 0,08906
 979,86;13124,010;  321,590;16027,063; 0,08876
 980,41;13041,246;  339,889;15936,970; 0,08919
 980,96;12836,159;  308,419;15667,900; 0,08850
 981,51;12842,096;  354,233;15650,816; 0,08811
 982,06;12736,609;  320,483;15544,354; 0,08854
 982,61;12649,209;  368,573;15415,583; 0,08823
 983,16;12473,306;  337,389;15246,920; 0,08939
 983,72;12358,140;  340,720;15110,470; 0,08956
 984,27;12282,959;  352,810;15016,460; 0,08960
 984,82;12157,216;  332,116;14886,377; 0,09019
 985,37;12050,756;  331,829;14730,396; 0,08943
 985,92;11916,663;  323,743;14573,066; 0,08960
 986,47;11808,340;  326,916;14444,174; 0,08975
 987,02;11734,506;  363,246;14357,077; 0,09013
 987,57;11574,739;  334,663;14161,747; 0,08996
 988,12;11481,713;  326,046;14052,720; 0,09007
 988,67;11422,680;  344,076;13970,917; 0,08991
 989,22;11312,260;  343,116;13840,757; 0,09009
 989,76;11209,869;  342,810;13735,253; 0,09075
 990,31;11119,413;  357,053;13610,970; 0,09044
 990,86;10983,270;  331,393;13473,486; 0,09124
 991,41;10885,982;  334,376;13362,050; 0,09155
 991,96;10817,692;  340,823;13218,177; 0,08960
 992,51;10714,119;  365,150;13122,137; 0,09085
 993,06;10639,306;  376,736;13025,747; 0,09080
 993,61;10569,409;  391,900;12917,964; 0,09017
 994,16;10416,133;  366,063;12740,100; 0,09034
 994,71;10271,286;  336,563;12554,187; 0,08983
 995,26;10218,913;  356,479;12483,227; 0,08976
 995,81;10198,646;  411,453;12431,280; 0,08924
 996,36;10034,906;  336,840;12250,800; 0,08937
 996,91; 9943,553;  383,083;12125,714; 0,08929
 997,46; 9920,126;  416,060;12074,117; 0,08872
 998,00; 9717,866;  351,789;11870,943; 0,08986
 998,55; 9657,886;  362,436;11794,634; 0,08986
 999,10; 9526,166;  335,819;11633,977; 0,08968
 999,65; 9447,999;  357,443;11553,483; 0,09047
1000,20; 9394,843;  388,166;11491,830; 0,09090
1000,75; 9362,556;  427,319;11418,377; 0,08993
1001,30; 9159,043;  354,716;11218,967; 0,09130
1001,85; 9096,026;  358,786;11119,483; 0,09047
1002,39; 9013,249;  379,113;11021,630; 0,09083
1002,94; 8861,946;  338,780;10859,420; 0,09144
1003,49; 8820,329;  365,256;10797,493; 0,09126
1004,04; 8768,909;  387,306;10738,090; 0,09165
1004,59; 8678,433;  415,506;10605,120; 0,09102
1005,14; 8524,899;  364,629;10427,347; 0,09101
1005,68; 8431,646;  355,613;10330,743; 0,09172
1006,23; 8354,036;  361,889;10233,000; 0,09170
1006,78; 8303,256;  368,796;10152,743; 0,09100
1007,33; 8195,232;  348,536;10034,720; 0,09147
1007,88; 8110,416;  358,353; 9932,217; 0,09167
1008,42; 8075,776;  383,746; 9875,250; 0,09129
1008,97; 7978,763;  363,986; 9764,117; 0,09148
1009,52; 7903,469;  357,970; 9674,340; 0,09156
1010,07; 7802,636;  335,506; 9567,073; 0,09212
1010,62; 7724,203;  347,163; 9471,924; 0,09234
1011,16; 7688,049;  363,590; 9415,930; 0,09199
1011,71; 7629,870;  352,223; 9345,510; 0,09193
1012,26; 7586,799;  389,313; 9282,820; 0,09189
1012,81; 7507,686;  366,883; 9203,290; 0,09253
1013,35; 7503,153;  382,616; 9200,693; 0,09286
1013,90; 7426,373;  364,389; 9102,137; 0,09247
1014,45; 7344,763;  335,509; 9002,356; 0,09219
1015,00; 7283,546;  350,053; 8929,097; 0,09249
1015,54; 7249,906;  358,333; 8864,333; 0,09141
1016,09; 7128,016;  333,803; 8738,930; 0,09241
1016,64; 7024,216;  330,663; 8596,644; 0,09164
1017,19; 6909,319;  317,963; 8462,384; 0,09189
1017,73; 6875,006;  383,216; 8394,490; 0,09134
1018,28; 6693,286;  347,166; 8180,037; 0,09141
1018,83; 6599,979;  358,283; 8042,693; 0,09031
1019,37; 6461,503;  333,733; 7885,047; 0,09072
1019,92; 6383,203;  361,786; 7791,400; 0,09127
1020,47; 6280,676;  352,613; 7663,210; 0,09104
1021,01; 6194,713;  340,866; 7571,914; 0,09176
1021,56; 6061,776;  316,960; 7420,100; 0,09217
1022,11; 6059,229;  344,176; 7412,487; 0,09230
1022,65; 6099,616;  492,306; 7422,330; 0,09198
1023,20; 5923,763;  376,536; 7246,720; 0,09289
1023,75; 5832,296;  358,120; 7138,394; 0,09293
1024,29; 5743,706;  340,039; 7031,867; 0,09286
1024,84; 5676,613;  354,376; 6948,097; 0,09304
1025,39; 5663,419;  389,063; 6918,900; 0,09273
1025,93; 5574,223;  346,919; 6809,707; 0,09214
1026,48; 5495,473;  338,616; 6720,283; 0,09255
1027,02; 5500,429;  394,599; 6708,773; 0,09225
1027,57; 5355,790;  345,359; 6542,934; 0,09235
1028,12; 5287,776;  333,916; 6471,030; 0,09302
1028,66; 5243,713;  348,806; 6404,217; 0,09240
1029,21; 5165,036;  333,713; 6304,967; 0,09200
1029,76; 5109,493;  339,803; 6241,130; 0,09246
1030,30; 5091,473;  380,986; 6207,597; 0,09235
1030,85; 5010,416;  370,063; 6108,160; 0,09222
1031,39; 4960,206;  370,733; 6040,474; 0,09180
1031,94; 4901,319;  343,223; 5972,513; 0,09167
1032,48; 4793,866;  324,673; 5838,660; 0,09124
1033,03; 4775,733;  329,169; 5817,297; 0,09140
1033,58; 4751,496;  368,229; 5782,210; 0,09172
1034,12; 4672,443;  360,720; 5686,133; 0,09170
1034,67; 4656,293;  399,076; 5649,287; 0,09105
1035,21; 4564,729;  365,473; 5551,737; 0,09168
1035,76; 4503,816;  344,960; 5484,537; 0,09195
1036,30; 4438,386;  348,030; 5413,547; 0,09286
1036,85; 4426,713;  380,396; 5377,013; 0,09162
1037,39; 4400,613;  416,466; 5334,184; 0,09143
1037,94; 4285,806;  349,196; 5207,890; 0,09140
1038,48; 4224,923;  338,643; 5141,737; 0,09199
1039,03; 4207,913;  373,493; 5108,557; 0,09163
1039,57; 4138,483;  366,930; 5024,490; 0,09164
1040,12; 4107,426;  364,776; 4981,644; 0,09117
1040,66; 4019,526;  348,836; 4879,820; 0,09144
1041,21; 3952,936;  352,936; 4811,423; 0,09289
1041,75; 3923,666;  351,656; 4769,130; 0,09226
1042,30; 4010,623;  459,243; 4828,610; 0,09002
1042,84; 3821,389;  342,613; 4642,390; 0,09202
1043,39; 3759,536;  344,900; 4561,894; 0,09166
1043,93; 3718,523;  343,566; 4520,994; 0,09264
1044,48; 3698,219;  362,359; 4489,937; 0,09249
1045,02; 3633,523;  343,566; 4416,013; 0,09267
1045,56; 3569,299;  331,503; 4340,793; 0,09282
1046,11; 3581,973;  386,669; 4333,570; 0,09174
1046,65; 3500,103;  347,596; 4235,907; 0,09110
1047,20; 3434,956;  330,393; 4167,097; 0,09196
1047,74; 3436,143;  381,756; 4147,160; 0,09089
1048,29; 3332,383;  322,349; 4045,970; 0,09239
1048,83; 3312,346;  347,240; 4011,200; 0,09191
1049,37; 3287,359;  351,456; 3983,350; 0,09239
1049,92; 3244,909;  356,576; 3936,160; 0,09319
1050,46; 3178,213;  342,889; 3850,480; 0,09241
1051,01; 3164,549;  352,203; 3833,090; 0,09262
1051,55; 3098,039;  341,103; 3753,723; 0,09266
1052,09; 3051,839;  343,909; 3693,370; 0,09234
1052,64; 3042,823;  354,220; 3679,400; 0,09229
1053,18; 3064,503;  423,710; 3684,783; 0,09163
1053,72; 2918,376;  334,703; 3533,437; 0,09274
1054,27; 2882,613;  335,210; 3491,753; 0,09311
1054,81; 2887,536;  364,639; 3485,010; 0,09231
1055,35; 2794,839;  327,106; 3388,440; 0,09361
1055,90; 2811,363;  366,440; 3392,307; 0,09258
1056,44; 2729,606;  329,490; 3299,423; 0,09251
1056,98; 2719,416;  355,383; 3278,530; 0,09220
1057,53; 2698,439;  362,373; 3248,990; 0,09190
1058,07; 2627,436;  345,326; 3171,057; 0,09279
1058,61; 2607,069;  351,180; 3140,150; 0,09213
1059,16; 2584,553;  368,546; 3108,967; 0,09225
1059,70; 2529,179;  347,456; 3047,287; 0,09254
1060,24; 2570,056;  412,843; 3069,753; 0,09048
1060,79; 2448,733;  341,276; 2943,720; 0,09162
1061,33; 2435,879;  362,563; 2916,407; 0,09053
1061,87; 2377,309;  337,963; 2852,107; 0,09090
1062,41; 2343,229;  340,879; 2816,517; 0,09215
1062,96; 2318,026;  341,323; 2783,697; 0,09187
1063,50; 2282,760;  341,463; 2740,027; 0,09186
1064,04; 2246,303;  337,530; 2700,487; 0,09270
1064,58; 2225,229;  343,353; 2670,340; 0,09220
1065,13; 2212,913;  356,750; 2655,497; 0,09288
1065,67; 2136,373;  322,683; 2574,650; 0,09400
1066,21; 2164,673;  364,620; 2595,043; 0,09310
1066,75; 2120,869;  353,186; 2547,043; 0,09380
1067,30; 2086,713;  347,159; 2501,800; 0,09294
1067,84; 2051,279;  342,446; 2455,923; 0,09230
1068,38; 2041,513;  350,966; 2449,183; 0,09382
1068,92; 2039,319;  372,113; 2430,747; 0,09159
1069,47; 1999,233;  356,023; 2392,167; 0,09312
1070,01; 1999,699;  377,866; 2389,163; 0,09347
1070,55; 1951,176;  348,099; 2332,950; 0,09277
1071,09; 1925,789;  353,516; 2300,533; 0,09284
1071,63; 1935,353;  383,440; 2299,667; 0,09158
1072,17; 1857,676;  334,406; 2224,487; 0,09370
1072,72; 1857,029;  349,373; 2212,077; 0,09184
1073,26; 1941,136;  436,223; 2281,950; 0,08866
1073,80; 1822,123;  353,056; 2174,157; 0,09329
1074,34; 1806,613;  359,900; 2157,660; 0,09435
1074,88; 1879,443;  436,163; 2207,467; 0,08894
1075,42; 1762,079;  355,943; 2099,837; 0,09349
1075,97; 1750,783;  363,093; 2083,614; 0,09337
1076,51; 1730,826;  359,293; 2053,867; 0,09185
1077,05; 1688,863;  344,363; 2008,640; 0,09266
1077,59; 1693,319;  366,263; 2009,293; 0,09276
1078,13; 1679,313;  361,016; 1990,213; 0,09196
1078,67; 1639,873;  352,346; 1945,463; 0,09249
1079,21; 1737,489;  459,393; 2036,727; 0,09136
1079,75; 1626,303;  365,949; 1928,377; 0,09331
1080,30; 1546,159;  321,243; 1838,057; 0,09283
1080,84; 1585,243;  372,430; 1875,903; 0,09330
1081,38; 1539,649;  337,859; 1823,847; 0,09219
1081,92; 1538,163;  356,223; 1821,410; 0,09330
1082,46; 1541,199;  373,710; 1816,893; 0,09207
1083,00; 1508,226;  352,409; 1781,943; 0,09231
1083,54; 1505,603;  370,983; 1773,647; 0,09210
1084,08; 1481,683;  363,356; 1750,513; 0,09356
1084,62; 1482,356;  376,706; 1744,307; 0,09234
1085,16; 1444,473;  365,873; 1706,487; 0,09444
1085,70; 1435,696;  363,773; 1692,007; 0,09311
1086,24; 1392,213;  342,343; 1640,340; 0,09214
1086,78; 1394,343;  357,363; 1641,280; 0,09277
1087,32; 1410,833;  382,909; 1653,523; 0,09205
1087,86; 1368,113;  352,190; 1610,090; 0,09279
1088,40; 1364,313;  362,673; 1597,190; 0,09079
1088,94; 1379,899;  389,316; 1610,973; 0,09106
1089,48; 1338,319;  367,039; 1570,150; 0,09296
1090,02; 1306,703;  349,173; 1535,157; 0,09293
1090,56; 1330,239;  386,066; 1553,667; 0,09224
1091,10; 1319,706;  389,313; 1537,490; 0,09134
1091,64; 1295,119;  375,203; 1510,520; 0,09137
1092,18; 1288,029;  383,013; 1501,997; 0,09217
1092,72; 1227,149;  336,460; 1436,147; 0,09154
1093,26; 1257,683;  377,626; 1473,520; 0,09526
1093,80; 1236,226;  372,243; 1436,850; 0,09068
1094,34; 1211,546;  354,829; 1415,547; 0,09276
1094,88; 1224,906;  377,946; 1425,693; 0,09239
1095,42; 1231,216;  396,336; 1428,953; 0,09232
1095,96; 1184,986;  361,909; 1375,670; 0,09050
1096,50; 1172,786;  364,099; 1367,727; 0,09379
1097,04; 1164,893;  363,473; 1352,963; 0,09155
1097,58; 1157,603;  368,253; 1340,923; 0,09070
1098,12; 1141,166;  366,406; 1321,510; 0,09088
1098,66; 1152,986;  386,746; 1333,703; 0,09197
1099,20; 1128,399;  376,586; 1305,960; 0,09208
1099,73; 1108,769;  366,770; 1282,293; 0,09127
1100,27; 1116,253;  383,053; 1289,500; 0,09212

